# Redshift		Merger Rate Density [Gpc^-3yr^-1]
1.000000000031931770e-02 1.102570607732996422e+02
3.000000000031888964e-02 1.142261348377598722e+02
5.000000000031846331e-02 1.192822045794756747e+02
7.000000000031804392e-02 1.231026155183224802e+02
9.000000000031761760e-02 1.276876124384762932e+02
1.100000000003171913e-01 1.314694927773180950e+02
1.300000000003167511e-01 1.366444624191905177e+02
1.500000000003163247e-01 1.416180968508807325e+02
1.700000000003158984e-01 1.460571897543548801e+02
1.900000000003154721e-01 1.512828502302125173e+02
2.100000000003150458e-01 1.569873458305884810e+02
2.300000000003146194e-01 1.613817915144779533e+02
2.500000000003141931e-01 1.670234239793280437e+02
2.700000000003137668e-01 1.725620116668956712e+02
2.900000000003133405e-01 1.782591175579460696e+02
3.100000000003129141e-01 1.831151484326607601e+02
3.300000000003124878e-01 1.888310759416007159e+02
3.500000000003120615e-01 1.941460752857475995e+02
3.700000000003116352e-01 1.997742387590475346e+02
3.900000000003112088e-01 2.058889789041342340e+02
4.100000000003107825e-01 2.116225914540219435e+02
4.300000000003103562e-01 2.175714524172884694e+02
4.500000000003099299e-01 2.233444808185017791e+02
4.700000000003095035e-01 2.305102818672620515e+02
4.900000000003090772e-01 2.365570467214322150e+02
5.100000000003086509e-01 2.424415175114215515e+02
5.300000000003082246e-01 2.489847789078029621e+02
5.500000000003077982e-01 2.552207060035213146e+02
5.700000000003073719e-01 2.616088080486991885e+02
5.900000000003069456e-01 2.692566236436849749e+02
6.100000000003065193e-01 2.767247199940786118e+02
6.300000000003060929e-01 2.825606069002269010e+02
6.500000000003056666e-01 2.891550828322416464e+02
6.700000000003052403e-01 2.967151976825322777e+02
6.900000000003048140e-01 3.042469763291514369e+02
7.100000000003043876e-01 3.109546964766580572e+02
7.300000000003039613e-01 3.192650436518591164e+02
7.500000000003035350e-01 3.256871393154615362e+02
7.700000000003031086e-01 3.343070583741105111e+02
7.900000000003026823e-01 3.405009246896561876e+02
8.100000000003022560e-01 3.492335346054459819e+02
8.300000000003018297e-01 3.573937175663951962e+02
8.500000000003014033e-01 3.642577655579903535e+02
8.700000000003009770e-01 3.733560129663509883e+02
8.900000000003005507e-01 3.794623918704714924e+02
9.100000000003001244e-01 3.885366441467711525e+02
9.300000000002996980e-01 3.972457314199509142e+02
9.500000000002992717e-01 4.043268891180874220e+02
9.700000000002988454e-01 4.123562337676355014e+02
9.900000000002984191e-01 4.212983908242539428e+02
1.010000000000297993e+00 4.298847870035218079e+02
1.030000000000297566e+00 4.380486947823036985e+02
1.050000000000297140e+00 4.480345098718731833e+02
1.070000000000296714e+00 4.551541003909101164e+02
1.090000000000296287e+00 4.638029313681843178e+02
1.110000000000295861e+00 4.729583451068634758e+02
1.130000000000295435e+00 4.808803231699732805e+02
1.150000000000295008e+00 4.908112124601011601e+02
1.170000000000294582e+00 4.976350317762832560e+02
1.190000000000294156e+00 5.075369851355008564e+02
1.210000000000293729e+00 5.153137008403102755e+02
1.230000000000293303e+00 5.240464280463022533e+02
1.250000000000292877e+00 5.327133608495738599e+02
1.270000000000292451e+00 5.402286605018788350e+02
1.290000000000292024e+00 5.500231095938989938e+02
1.310000000000291598e+00 5.572446632083168652e+02
1.330000000000291172e+00 5.661697883070562511e+02
1.350000000000290745e+00 5.744197070191811463e+02
1.370000000000290319e+00 5.818912590016441300e+02
1.390000000000289893e+00 5.899631539058115095e+02
1.410000000000289466e+00 5.980926621263964762e+02
1.430000000000289040e+00 6.086911082589512034e+02
1.450000000000288614e+00 6.158128697614056364e+02
1.470000000000288187e+00 6.230594785817287402e+02
1.490000000000287761e+00 6.316812832129916160e+02
1.510000000000287335e+00 6.406250942955875871e+02
1.530000000000286908e+00 6.495867796226191331e+02
1.550000000000286482e+00 6.561195959012499088e+02
1.570000000000286056e+00 6.652454708245275015e+02
1.590000000000285629e+00 6.724409737231910640e+02
1.610000000000285203e+00 6.789753954266038818e+02
1.630000000000284777e+00 6.872710802012396698e+02
1.650000000000284350e+00 6.887189003138649923e+02
1.670000000000283924e+00 6.906585217175614844e+02
1.690000000000283498e+00 6.915806167138127876e+02
1.710000000000283071e+00 6.915860663505504817e+02
1.730000000000282645e+00 6.928423448923034584e+02
1.750000000000282219e+00 6.983125611356219906e+02
1.770000000000281792e+00 6.999899550493710194e+02
1.790000000000281366e+00 7.021423714568982177e+02
1.810000000000280940e+00 7.049961558341818773e+02
1.830000000000280513e+00 7.090232756142039534e+02
1.850000000000280087e+00 7.095586079134003512e+02
1.870000000000279661e+00 7.122317208583261845e+02
1.890000000000279234e+00 7.153011023749010064e+02
1.910000000000278808e+00 7.154558820841990610e+02
1.930000000000278382e+00 7.181886701644606319e+02
1.950000000000277955e+00 7.170102723529524837e+02
1.970000000000277529e+00 7.202492075664777076e+02
1.990000000000277103e+00 7.206863740381282923e+02
2.010000000000276899e+00 7.211636770317318224e+02
2.030000000000276472e+00 7.193374799217252757e+02
2.050000000000276046e+00 7.210442723362394872e+02
2.070000000000275620e+00 7.188039473996004745e+02
2.090000000000275193e+00 7.183325244385951009e+02
2.110000000000274767e+00 7.165105370785873902e+02
2.130000000000274341e+00 7.155667480999414920e+02
2.150000000000273914e+00 7.152350971659011520e+02
2.170000000000273488e+00 7.133953021650806932e+02
2.190000000000273062e+00 7.107830161475878867e+02
2.210000000000272635e+00 7.078406780100888227e+02
2.230000000000272209e+00 7.068724801214078752e+02
2.250000000000271783e+00 7.014180059207920976e+02
2.270000000000271356e+00 7.001634874703405558e+02
2.290000000000270930e+00 6.969683183164707998e+02
2.310000000000270504e+00 6.942287177753628384e+02
2.330000000000270077e+00 6.891891765845706459e+02
2.350000000000269651e+00 6.856188268869980220e+02
2.370000000000269225e+00 6.825318015724525367e+02
2.390000000000268798e+00 6.799809823924595094e+02
2.410000000000268372e+00 6.774189567826463190e+02
2.430000000000267946e+00 6.720981172925889950e+02
2.450000000000267519e+00 6.689494758429781314e+02
2.470000000000267093e+00 6.636251193931798298e+02
2.490000000000266667e+00 6.599574332491538371e+02
2.510000000000266240e+00 6.544125015828954020e+02
2.530000000000265814e+00 6.501573568655101099e+02
2.550000000000265388e+00 6.465896673879268519e+02
2.570000000000264961e+00 6.426797630383390469e+02
2.590000000000264535e+00 6.377241734143125313e+02
2.610000000000264109e+00 6.320480962554987627e+02
2.630000000000263682e+00 6.269329825068089121e+02
2.650000000000263256e+00 6.223421816094435144e+02
2.670000000000262830e+00 6.169647037873816089e+02
2.690000000000262403e+00 6.127916792213587769e+02
2.710000000000261977e+00 6.081661135676669119e+02
2.730000000000261551e+00 6.017589707024434347e+02
2.750000000000261124e+00 5.965046084520147360e+02
2.770000000000260698e+00 5.920755638935243041e+02
2.790000000000260272e+00 5.862762333943410340e+02
2.810000000000259845e+00 5.833546567600061508e+02
2.830000000000259419e+00 5.774474861932867498e+02
2.850000000000258993e+00 5.713195434799412169e+02
2.870000000000258567e+00 5.687454299065955183e+02
2.890000000000258140e+00 5.635725775023225879e+02
2.910000000000257714e+00 5.565823719363784221e+02
2.930000000000257288e+00 5.525475158347329625e+02
2.950000000000256861e+00 5.490758774802529842e+02
2.970000000000256435e+00 5.428036707287311629e+02
2.990000000000256009e+00 5.384518326300300259e+02
3.010000000000255582e+00 5.325868949686683891e+02
3.030000000000255156e+00 5.289441765918471674e+02
3.050000000000254730e+00 5.247804329703340045e+02
3.070000000000254303e+00 5.180767324392079445e+02
3.090000000000253877e+00 5.119089990943559201e+02
3.110000000000253451e+00 5.073024852271194050e+02
3.130000000000253024e+00 5.028710389914329539e+02
3.150000000000252598e+00 4.975677429615043366e+02
3.170000000000252172e+00 4.897762852926894652e+02
3.190000000000251745e+00 4.849790970129976131e+02
3.210000000000251319e+00 4.772997003452414333e+02
3.230000000000250893e+00 4.709503230842131529e+02
3.250000000000250466e+00 4.650197874557164823e+02
3.270000000000250040e+00 4.591056179975544183e+02
3.290000000000249614e+00 4.531818764063478966e+02
3.310000000000249187e+00 4.485371531488143546e+02
3.330000000000248761e+00 4.424262723941258741e+02
3.350000000000248335e+00 4.379990571400051067e+02
3.370000000000247908e+00 4.330045095718959374e+02
3.390000000000247482e+00 4.291405054723276180e+02
3.410000000000247056e+00 4.241549042978319903e+02
3.430000000000246629e+00 4.198857468442427603e+02
3.450000000000246203e+00 4.159494048468201299e+02
3.470000000000245777e+00 4.104422216096256761e+02
3.490000000000245350e+00 4.060720745324233576e+02
3.510000000000244924e+00 4.035730671253713808e+02
3.530000000000244498e+00 3.986237214825558794e+02
3.550000000000244071e+00 3.953674632591429940e+02
3.570000000000243645e+00 3.887770613196694853e+02
3.590000000000243219e+00 3.863021327981967374e+02
3.610000000000242792e+00 3.811957470403705770e+02
3.630000000000242366e+00 3.785287772545269149e+02
3.650000000000241940e+00 3.733964422414655928e+02
3.670000000000241513e+00 3.709856013262216266e+02
3.690000000000241087e+00 3.673381281108873964e+02
3.710000000000240661e+00 3.627865518316012867e+02
3.730000000000240234e+00 3.598990550607180126e+02
3.750000000000239808e+00 3.547839580174746175e+02
3.770000000000239382e+00 3.512257068773864717e+02
3.790000000000238956e+00 3.475604795233510913e+02
3.810000000000238529e+00 3.439377116904497029e+02
3.830000000000238103e+00 3.403205303802219532e+02
3.850000000000237677e+00 3.373557522296479192e+02
3.870000000000237250e+00 3.343785021076143380e+02
3.890000000000236824e+00 3.309211773013936977e+02
3.910000000000236398e+00 3.269088115699036621e+02
3.930000000000235971e+00 3.241382262462955737e+02
3.950000000000235545e+00 3.209470591176809648e+02
3.970000000000235119e+00 3.175517204277766723e+02
3.990000000000234692e+00 3.144498003210067623e+02
4.010000000000234266e+00 3.114630122829390757e+02
4.030000000000233840e+00 3.079291411845665039e+02
4.050000000000233413e+00 3.041016793934969655e+02
4.070000000000232987e+00 3.019833025405546323e+02
4.090000000000232561e+00 2.974226415774573411e+02
4.110000000000232134e+00 2.952865514345633642e+02
4.130000000000231708e+00 2.914286674072553183e+02
4.150000000000231282e+00 2.883403234588845407e+02
4.170000000000230855e+00 2.845232266205551355e+02
4.190000000000230429e+00 2.807124563961073704e+02
4.210000000000230003e+00 2.785989377344570812e+02
4.230000000000229576e+00 2.746099618999023733e+02
4.250000000000229150e+00 2.725659486076555140e+02
4.270000000000228724e+00 2.695815818125319652e+02
4.290000000000228297e+00 2.668981176585298840e+02
4.310000000000227871e+00 2.641841514682267302e+02
4.330000000000227445e+00 2.627191059354510685e+02
4.350000000000227018e+00 2.594632925294070560e+02
4.370000000000226592e+00 2.573709560481127028e+02
4.390000000000226166e+00 2.548507826306547486e+02
4.410000000000225739e+00 2.523956637754121175e+02
4.430000000000225313e+00 2.509450235571972314e+02
4.450000000000224887e+00 2.483378345664299900e+02
4.470000000000224460e+00 2.454457857620012931e+02
4.490000000000224034e+00 2.435581569160364666e+02
4.510000000000223608e+00 2.413915591408686794e+02
4.530000000000223181e+00 2.393479292579070545e+02
4.550000000000222755e+00 2.380326044164400514e+02
4.570000000000222329e+00 2.357429148525103813e+02
4.590000000000221902e+00 2.331909259540465484e+02
4.610000000000221476e+00 2.309751108222366156e+02
4.630000000000221050e+00 2.288375366545713518e+02
4.650000000000220624e+00 2.266880951999268063e+02
4.670000000000220197e+00 2.248313969222781168e+02
4.690000000000219771e+00 2.241092412445239859e+02
4.710000000000219345e+00 2.214491138067469080e+02
4.730000000000218918e+00 2.193368805613335439e+02
4.750000000000218492e+00 2.180793708171482876e+02
4.770000000000218066e+00 2.154514480154790022e+02
4.790000000000217639e+00 2.138870180798310514e+02
4.810000000000217213e+00 2.118474042600146561e+02
4.830000000000216787e+00 2.098381927438685750e+02
4.850000000000216360e+00 2.082547274162267001e+02
4.870000000000215934e+00 2.061088750974221568e+02
4.890000000000215508e+00 2.036345883266879184e+02
4.910000000000215081e+00 2.023076048666572149e+02
4.930000000000214655e+00 2.005721277567344316e+02
4.950000000000214229e+00 1.979717471594819358e+02
4.970000000000213802e+00 1.964199961179851641e+02
4.990000000000213376e+00 1.947934035697406330e+02
5.010000000000212950e+00 1.930333631468272699e+02
5.030000000000212523e+00 1.918933062828425591e+02
5.050000000000212097e+00 1.900399160182174967e+02
5.070000000000211671e+00 1.886958093510313859e+02
5.090000000000211244e+00 1.867472449020139038e+02
5.110000000000210818e+00 1.851108278953606998e+02
5.130000000000210392e+00 1.838132224621246849e+02
5.150000000000209965e+00 1.828685926903756922e+02
5.170000000000209539e+00 1.810037513033263963e+02
5.190000000000209113e+00 1.796368389461951267e+02
5.210000000000208686e+00 1.784765547216940149e+02
5.230000000000208260e+00 1.770899564838191509e+02
5.250000000000207834e+00 1.758128227618679205e+02
5.270000000000207407e+00 1.746446277263676166e+02
5.290000000000206981e+00 1.737449015583375456e+02
5.310000000000206555e+00 1.722537031760608670e+02
5.330000000000206128e+00 1.713055013768361619e+02
5.350000000000205702e+00 1.696273106837294904e+02
5.370000000000205276e+00 1.685392970508934525e+02
5.390000000000204849e+00 1.675598952687465157e+02
5.410000000000204423e+00 1.664935868662440157e+02
5.430000000000203997e+00 1.650976386794824293e+02
5.450000000000203570e+00 1.641116522231963302e+02
5.470000000000203144e+00 1.626286977296228429e+02
5.490000000000202718e+00 1.615166097352054635e+02
5.510000000000202292e+00 1.606070334107188557e+02
5.530000000000201865e+00 1.586633571727282117e+02
5.550000000000201439e+00 1.576246734154386218e+02
5.570000000000201013e+00 1.565079450200022109e+02
5.590000000000200586e+00 1.554149321692233343e+02
5.610000000000200160e+00 1.542596675550317684e+02
5.630000000000199734e+00 1.530446275327458068e+02
5.650000000000199307e+00 1.520499854336252668e+02
5.670000000000198881e+00 1.510624613917534873e+02
5.690000000000198455e+00 1.500573147856288472e+02
5.710000000000198028e+00 1.490630368556047358e+02
5.730000000000197602e+00 1.478710209388908652e+02
5.750000000000197176e+00 1.470498456988534315e+02
5.770000000000196749e+00 1.464144595673423055e+02
5.790000000000196323e+00 1.455062987831292958e+02
5.810000000000195897e+00 1.449239818189319351e+02
5.830000000000195470e+00 1.437005392909611032e+02
5.850000000000195044e+00 1.432309257035431926e+02
5.870000000000194618e+00 1.424490677118692474e+02
5.890000000000194191e+00 1.413124898751234753e+02
5.910000000000193765e+00 1.405683415330726405e+02
5.930000000000193339e+00 1.397914684497448263e+02
5.950000000000192912e+00 1.397196787284854906e+02
5.970000000000192486e+00 1.381308480302395765e+02
5.990000000000192060e+00 1.374523305841994159e+02
6.010000000000191633e+00 1.361114643055458657e+02
6.030000000000191207e+00 1.358759263078604533e+02
6.050000000000190781e+00 1.353840387631195199e+02
6.070000000000190354e+00 1.339572931539838692e+02
6.090000000000189928e+00 1.330938263483187427e+02
6.110000000000189502e+00 1.327418887646837788e+02
6.130000000000189075e+00 1.318443969375510108e+02
6.150000000000188649e+00 1.313156751128723840e+02
6.170000000000188223e+00 1.303513284407767969e+02
6.190000000000187796e+00 1.298338539879335940e+02
6.210000000000187370e+00 1.288849823240012142e+02
6.230000000000186944e+00 1.286323584458463927e+02
6.250000000000186517e+00 1.278636627220531636e+02
6.270000000000186091e+00 1.274079079262289440e+02
6.290000000000185665e+00 1.271114703899507390e+02
6.310000000000185238e+00 1.262672006976507646e+02
6.330000000000184812e+00 1.254870911498096433e+02
6.350000000000184386e+00 1.249975352926689141e+02
6.370000000000183960e+00 1.242476372652882475e+02
6.390000000000183533e+00 1.234646278664403809e+02
6.410000000000183107e+00 1.232445521772588819e+02
6.430000000000182681e+00 1.230182181217610093e+02
6.450000000000182254e+00 1.222577052723615338e+02
6.470000000000181828e+00 1.214088175136337355e+02
6.490000000000181402e+00 1.211028652883028087e+02
6.510000000000180975e+00 1.208414412569523364e+02
6.530000000000180549e+00 1.203179457062306739e+02
6.550000000000180123e+00 1.198307978326701999e+02
6.570000000000179696e+00 1.189262909518053561e+02
6.590000000000179270e+00 1.188214366407090097e+02
6.610000000000178844e+00 1.183632190257096397e+02
6.630000000000178417e+00 1.178352540530399040e+02
6.650000000000177991e+00 1.173370986087683008e+02
6.670000000000177565e+00 1.170453411263012100e+02
6.690000000000177138e+00 1.166051574187497977e+02
6.710000000000176712e+00 1.163814435957443010e+02
6.730000000000176286e+00 1.162294230122057854e+02
6.750000000000175859e+00 1.149167843688860984e+02
6.770000000000175433e+00 1.146257860453891197e+02
6.790000000000175007e+00 1.146963945660817927e+02
6.810000000000174580e+00 1.137542665444757546e+02
6.830000000000174154e+00 1.134761925765731405e+02
6.850000000000173728e+00 1.134591802767180866e+02
6.870000000000173301e+00 1.129717174280052916e+02
6.890000000000172875e+00 1.125519362783489186e+02
6.910000000000172449e+00 1.124664143490975761e+02
6.930000000000172022e+00 1.121514425193364701e+02
6.950000000000171596e+00 1.121815184559973773e+02
6.970000000000171170e+00 1.112992905556566541e+02
6.990000000000170743e+00 1.108523105635004384e+02
7.010000000000170317e+00 1.108059221361069149e+02
7.030000000000169891e+00 1.105740582291564635e+02
7.050000000000169464e+00 1.101397177420427624e+02
7.070000000000169038e+00 1.099241021781813004e+02
7.090000000000168612e+00 1.098059472451215015e+02
7.110000000000168185e+00 1.093234449827779855e+02
7.130000000000167759e+00 1.089657334894521341e+02
7.150000000000167333e+00 1.088187793189003258e+02
7.170000000000166906e+00 1.086512609913261969e+02
7.190000000000166480e+00 1.081071782690375471e+02
7.210000000000166054e+00 1.080925994597903212e+02
7.230000000000165628e+00 1.078004119612205614e+02
7.250000000000165201e+00 1.079601771526674696e+02
7.270000000000164775e+00 1.074410288372072984e+02
7.290000000000164349e+00 1.070918490129939613e+02
7.310000000000163922e+00 1.070431383165580570e+02
7.330000000000163496e+00 1.068170633305123687e+02
7.350000000000163070e+00 1.066067408255903075e+02
7.370000000000162643e+00 1.062230872716538670e+02
7.390000000000162217e+00 1.060122241868915864e+02
7.410000000000161791e+00 1.061157607633225126e+02
7.430000000000161364e+00 1.056138787874451168e+02
7.450000000000160938e+00 1.055910960049903622e+02
7.470000000000160512e+00 1.052985653289645143e+02
7.490000000000160085e+00 1.051309155306839358e+02
7.510000000000159659e+00 1.052341865590186245e+02
7.530000000000159233e+00 1.047383415496014720e+02
7.550000000000158806e+00 1.043330143166927684e+02
7.570000000000158380e+00 1.046091013642914760e+02
7.590000000000157954e+00 1.045474275076234676e+02
7.610000000000157527e+00 1.042157214070309834e+02
7.630000000000157101e+00 1.043688482195674680e+02
7.650000000000156675e+00 1.040203927885827540e+02
7.670000000000156248e+00 1.038300291230935954e+02
7.690000000000155822e+00 1.036169214044193296e+02
7.710000000000155396e+00 1.036868573843184720e+02
7.730000000000154969e+00 1.033313070954244495e+02
7.750000000000154543e+00 1.031109796735244828e+02
7.770000000000154117e+00 1.031170329599198396e+02
7.790000000000153690e+00 1.031951078520852292e+02
7.810000000000153264e+00 1.028268875080793521e+02
7.830000000000152838e+00 1.027216671602480744e+02
7.850000000000152411e+00 1.026689059408813023e+02
7.870000000000151985e+00 1.024694879396749343e+02
7.890000000000151559e+00 1.024439284626290174e+02
7.910000000000151132e+00 1.022333093196859153e+02
7.930000000000150706e+00 1.023148368141025912e+02
7.950000000000150280e+00 1.022072084593864929e+02
7.970000000000149853e+00 1.021304087954131461e+02
