# Redshift		Merger Rate Density [Gpc^-3yr^-1]
1.000000000031931770e-02 6.788822299906671276e+01
3.000000000031888964e-02 7.107772760443643278e+01
5.000000000031846331e-02 7.420386636056954899e+01
7.000000000031804392e-02 7.715165051095824822e+01
9.000000000031761760e-02 8.102828258296609931e+01
1.100000000003171913e-01 8.323762456491010653e+01
1.300000000003167511e-01 8.719460335041162580e+01
1.500000000003163247e-01 9.116779116796953986e+01
1.700000000003158984e-01 9.455898052502696771e+01
1.900000000003154721e-01 9.753877913932394961e+01
2.100000000003150458e-01 1.022934531509342264e+02
2.300000000003146194e-01 1.065508078615412444e+02
2.500000000003141931e-01 1.083667540581338642e+02
2.700000000003137668e-01 1.133910626803745885e+02
2.900000000003133405e-01 1.156929375597342471e+02
3.100000000003129141e-01 1.200364914091934168e+02
3.300000000003124878e-01 1.235719396793291622e+02
3.500000000003120615e-01 1.268424965678199925e+02
3.700000000003116352e-01 1.300096432073433732e+02
3.900000000003112088e-01 1.355480149234455780e+02
4.100000000003107825e-01 1.380092651991276114e+02
4.300000000003103562e-01 1.425927982048305012e+02
4.500000000003099299e-01 1.471634428182403838e+02
4.700000000003095035e-01 1.512302319066100438e+02
4.900000000003090772e-01 1.569663275833501928e+02
5.100000000003086509e-01 1.591672539079544322e+02
5.300000000003082246e-01 1.663894514163934275e+02
5.500000000003077982e-01 1.697328065979461940e+02
5.700000000003073719e-01 1.740683152988243307e+02
5.900000000003069456e-01 1.777189860276755269e+02
6.100000000003065193e-01 1.828061213422669766e+02
6.300000000003060929e-01 1.879566359424146071e+02
6.500000000003056666e-01 1.928011497324687582e+02
6.700000000003052403e-01 1.978047047950547892e+02
6.900000000003048140e-01 2.029344765942627760e+02
7.100000000003043876e-01 2.066070174949320233e+02
7.300000000003039613e-01 2.105874544821575682e+02
7.500000000003035350e-01 2.155887806462882281e+02
7.700000000003031086e-01 2.216994701972333246e+02
7.900000000003026823e-01 2.267641408802626302e+02
8.100000000003022560e-01 2.333034716357112188e+02
8.300000000003018297e-01 2.370016611887747331e+02
8.500000000003014033e-01 2.387730581875877078e+02
8.700000000003009770e-01 2.440777127092503918e+02
8.900000000003005507e-01 2.520916513220155366e+02
9.100000000003001244e-01 2.546529159278718737e+02
9.300000000002996980e-01 2.594549908795292481e+02
9.500000000002992717e-01 2.649392300529667068e+02
9.700000000002988454e-01 2.678308964978875224e+02
9.900000000002984191e-01 2.741868782667413029e+02
1.010000000000297993e+00 2.776056418177103069e+02
1.030000000000297566e+00 2.826554306189962631e+02
1.050000000000297140e+00 2.855378814424534539e+02
1.070000000000296714e+00 2.896625336772801234e+02
1.090000000000296287e+00 2.982405781810809344e+02
1.110000000000295861e+00 3.008811274105454459e+02
1.130000000000295435e+00 3.042795967699727271e+02
1.150000000000295008e+00 3.071630794599149681e+02
1.170000000000294582e+00 3.120371870831971819e+02
1.190000000000294156e+00 3.140662676229926547e+02
1.210000000000293729e+00 3.218576709312663411e+02
1.230000000000293303e+00 3.221694590506740496e+02
1.250000000000292877e+00 3.259089921523688531e+02
1.270000000000292451e+00 3.287027274541911765e+02
1.290000000000292024e+00 3.361826489966784379e+02
1.310000000000291598e+00 3.388416171541262543e+02
1.330000000000291172e+00 3.404678685999947447e+02
1.350000000000290745e+00 3.436083964310180932e+02
1.370000000000290319e+00 3.454860042900218673e+02
1.390000000000289893e+00 3.514236161055358707e+02
1.410000000000289466e+00 3.509879263691390747e+02
1.430000000000289040e+00 3.566367870836009502e+02
1.450000000000288614e+00 3.572226244116951648e+02
1.470000000000288187e+00 3.588619523327220122e+02
1.490000000000287761e+00 3.646578759395310385e+02
1.510000000000287335e+00 3.653168658104420388e+02
1.530000000000286908e+00 3.655325273877035670e+02
1.550000000000286482e+00 3.666933282453034622e+02
1.570000000000286056e+00 3.714565987764373745e+02
1.590000000000285629e+00 3.726864003465270798e+02
1.610000000000285203e+00 3.704142981497944334e+02
1.630000000000284777e+00 3.737195312410230486e+02
1.650000000000284350e+00 3.716746952884469124e+02
1.670000000000283924e+00 3.747302378068264943e+02
1.690000000000283498e+00 3.752400930900815865e+02
1.710000000000283071e+00 3.732141646705670155e+02
1.730000000000282645e+00 3.776687420273221960e+02
1.750000000000282219e+00 3.743818008628048233e+02
1.770000000000281792e+00 3.749731757155281002e+02
1.790000000000281366e+00 3.759614968864388516e+02
1.810000000000280940e+00 3.742168907828516922e+02
1.830000000000280513e+00 3.724191200166710018e+02
1.850000000000280087e+00 3.729578292831918134e+02
1.870000000000279661e+00 3.721744281263874541e+02
1.890000000000279234e+00 3.730636886032931443e+02
1.910000000000278808e+00 3.689027909975946500e+02
1.930000000000278382e+00 3.674276900224749625e+02
1.950000000000277955e+00 3.683290242983894700e+02
1.970000000000277529e+00 3.621397868633650887e+02
1.990000000000277103e+00 3.646087438850610738e+02
2.010000000000276899e+00 3.579028608468993866e+02
2.030000000000276472e+00 3.567711418518293840e+02
2.050000000000276046e+00 3.544085120790564929e+02
2.070000000000275620e+00 3.516789700569589741e+02
2.090000000000275193e+00 3.491619472875573251e+02
2.110000000000274767e+00 3.476397426978290923e+02
2.130000000000274341e+00 3.461610257883348254e+02
2.150000000000273914e+00 3.411280865772999391e+02
2.170000000000273488e+00 3.373669119592345282e+02
2.190000000000273062e+00 3.315071776922535491e+02
2.210000000000272635e+00 3.308083885057431530e+02
2.230000000000272209e+00 3.275595404681479295e+02
2.250000000000271783e+00 3.256198644051917768e+02
2.270000000000271356e+00 3.174071472456064384e+02
2.290000000000270930e+00 3.183569726800400872e+02
2.310000000000270504e+00 3.124794035172670306e+02
2.330000000000270077e+00 3.093163643145281299e+02
2.350000000000269651e+00 3.068222897166340886e+02
2.370000000000269225e+00 3.021654467629282408e+02
2.390000000000268798e+00 2.979484513801808703e+02
2.410000000000268372e+00 2.931408923078859630e+02
2.430000000000267946e+00 2.915122447492889250e+02
2.450000000000267519e+00 2.863573646887064683e+02
2.470000000000267093e+00 2.828789442575270527e+02
2.490000000000266667e+00 2.813122513859080982e+02
2.510000000000266240e+00 2.771240459856761049e+02
2.530000000000265814e+00 2.702184614588045974e+02
2.550000000000265388e+00 2.687465748210640868e+02
2.570000000000264961e+00 2.643971002169135431e+02
2.590000000000264535e+00 2.616419979798334339e+02
2.610000000000264109e+00 2.561097756858293337e+02
2.630000000000263682e+00 2.543773114261278465e+02
2.650000000000263256e+00 2.512670692035935929e+02
2.670000000000262830e+00 2.485423025156799781e+02
2.690000000000262403e+00 2.414627290452775128e+02
2.710000000000261977e+00 2.399097726099852821e+02
2.730000000000261551e+00 2.352396725061357756e+02
2.750000000000261124e+00 2.335260824745684261e+02
2.770000000000260698e+00 2.276303127311233538e+02
2.790000000000260272e+00 2.237893860933048131e+02
2.810000000000259845e+00 2.217576648588691342e+02
2.830000000000259419e+00 2.178213481122195390e+02
2.850000000000258993e+00 2.141513894056719494e+02
2.870000000000258567e+00 2.115792475260386425e+02
2.890000000000258140e+00 2.090220116258138603e+02
2.910000000000257714e+00 2.046065056707552969e+02
2.930000000000257288e+00 2.019429768720202958e+02
2.950000000000256861e+00 1.985292488497966588e+02
2.970000000000256435e+00 1.962281328026436995e+02
2.990000000000256009e+00 1.932054028852220426e+02
3.010000000000255582e+00 1.888552964744410190e+02
3.030000000000255156e+00 1.866833473285242064e+02
3.050000000000254730e+00 1.848605483593998429e+02
3.070000000000254303e+00 1.808549178358061909e+02
3.090000000000253877e+00 1.760134220626798367e+02
3.110000000000253451e+00 1.753870013203590474e+02
3.130000000000253024e+00 1.724105728615934083e+02
3.150000000000252598e+00 1.691663277782307375e+02
3.170000000000252172e+00 1.670801354467301110e+02
3.190000000000251745e+00 1.640322831193404625e+02
3.210000000000251319e+00 1.601831686883284931e+02
3.230000000000250893e+00 1.586214331621446831e+02
3.250000000000250466e+00 1.557070542444804460e+02
3.270000000000250040e+00 1.536618563890758935e+02
3.290000000000249614e+00 1.503937599732716706e+02
3.310000000000249187e+00 1.491881899181096571e+02
3.330000000000248761e+00 1.450431638809367882e+02
3.350000000000248335e+00 1.439525717907702642e+02
3.370000000000247908e+00 1.420877575163075051e+02
3.390000000000247482e+00 1.376182247396738205e+02
3.410000000000247056e+00 1.364586334068477242e+02
3.430000000000246629e+00 1.337742965873690650e+02
3.450000000000246203e+00 1.328789406728067775e+02
3.470000000000245777e+00 1.306745562992802263e+02
3.490000000000245350e+00 1.270404437950806482e+02
3.510000000000244924e+00 1.255633346903974115e+02
3.530000000000244498e+00 1.235755054662322152e+02
3.550000000000244071e+00 1.211928607432365936e+02
3.570000000000243645e+00 1.192764138656889514e+02
3.590000000000243219e+00 1.176787779012348381e+02
3.610000000000242792e+00 1.162797999681021111e+02
3.630000000000242366e+00 1.134323217663869201e+02
3.650000000000241940e+00 1.115069448584545313e+02
3.670000000000241513e+00 1.095204719734268224e+02
3.690000000000241087e+00 1.061506118001564118e+02
3.710000000000240661e+00 1.049047149603001543e+02
3.730000000000240234e+00 1.040271071537015928e+02
3.750000000000239808e+00 1.016082850697226974e+02
3.770000000000239382e+00 9.989618145302239327e+01
3.790000000000238956e+00 9.837175814667078555e+01
3.810000000000238529e+00 9.667207004574602536e+01
3.830000000000238103e+00 9.602678159028360483e+01
3.850000000000237677e+00 9.369719950131614894e+01
3.870000000000237250e+00 9.257053532296210108e+01
3.890000000000236824e+00 9.024915769473120974e+01
3.910000000000236398e+00 9.013704189613257256e+01
3.930000000000235971e+00 8.869561597781361684e+01
3.950000000000235545e+00 8.550761305949187374e+01
3.970000000000235119e+00 8.539710609919816875e+01
3.990000000000234692e+00 8.459058586537271651e+01
4.010000000000234266e+00 8.197965292439327811e+01
4.030000000000233840e+00 8.168965156301872810e+01
4.050000000000233413e+00 8.037493363600323448e+01
4.070000000000232987e+00 7.815966683204604237e+01
4.090000000000232561e+00 7.711358589293797650e+01
4.110000000000232134e+00 7.665210023169579756e+01
4.130000000000231708e+00 7.566855607917125326e+01
4.150000000000231282e+00 7.431878775034356011e+01
4.170000000000230855e+00 7.245539272744440495e+01
4.190000000000230429e+00 7.083134648288108792e+01
4.210000000000230003e+00 7.079392468155012352e+01
4.230000000000229576e+00 6.957941847353444587e+01
4.250000000000229150e+00 6.867152052384605554e+01
4.270000000000228724e+00 6.787058277828441533e+01
4.290000000000228297e+00 6.688395880730153920e+01
4.310000000000227871e+00 6.616576869986897691e+01
4.330000000000227445e+00 6.502076013301652324e+01
4.350000000000227018e+00 6.457662658198310623e+01
4.370000000000226592e+00 6.287234434432293995e+01
4.390000000000226166e+00 6.145137952208873600e+01
4.410000000000225739e+00 6.174008064021150233e+01
4.430000000000225313e+00 6.062379008922363965e+01
4.450000000000224887e+00 5.964519871350792357e+01
4.470000000000224460e+00 5.996267036233994219e+01
4.490000000000224034e+00 5.740500307342571062e+01
4.510000000000223608e+00 5.762074617128640597e+01
4.530000000000223181e+00 5.659718185199735530e+01
4.550000000000222755e+00 5.615979142392678369e+01
4.570000000000222329e+00 5.555279651918681338e+01
4.590000000000221902e+00 5.484574690938693209e+01
4.610000000000221476e+00 5.468177880649160016e+01
4.630000000000221050e+00 5.295906689604335327e+01
4.650000000000220624e+00 5.329782963732220935e+01
4.670000000000220197e+00 5.148144269286818542e+01
4.690000000000219771e+00 5.162466254058904980e+01
4.710000000000219345e+00 5.080583954799252666e+01
4.730000000000218918e+00 5.058868775275880836e+01
4.750000000000218492e+00 4.985565841682675625e+01
4.770000000000218066e+00 4.873669628450070945e+01
4.790000000000217639e+00 4.885959929844659655e+01
4.810000000000217213e+00 4.782475645328899816e+01
4.830000000000216787e+00 4.777712326654005182e+01
4.850000000000216360e+00 4.764549367694563387e+01
4.870000000000215934e+00 4.703030535360767317e+01
4.890000000000215508e+00 4.652703516036964970e+01
4.910000000000215081e+00 4.592109678970665954e+01
4.930000000000214655e+00 4.499817008620590997e+01
4.950000000000214229e+00 4.452941751577437657e+01
4.970000000000213802e+00 4.489427688094844626e+01
4.990000000000213376e+00 4.372964464168204302e+01
5.010000000000212950e+00 4.416261771071816611e+01
5.030000000000212523e+00 4.263999722925174041e+01
5.050000000000212097e+00 4.258754659371273732e+01
5.070000000000211671e+00 4.236250552739048203e+01
5.090000000000211244e+00 4.222731854761274661e+01
5.110000000000210818e+00 4.099216601024107121e+01
5.130000000000210392e+00 4.128831591080281527e+01
5.150000000000209965e+00 4.123445128026318685e+01
5.170000000000209539e+00 4.014052844175859036e+01
5.190000000000209113e+00 3.994843193178044771e+01
5.210000000000208686e+00 4.009620003577795444e+01
5.230000000000208260e+00 3.934304714145802251e+01
5.250000000000207834e+00 3.893080007317750812e+01
5.270000000000207407e+00 3.840669939333257332e+01
5.290000000000206981e+00 3.869614838237669119e+01
5.310000000000206555e+00 3.809243824073116969e+01
5.330000000000206128e+00 3.752839260128240539e+01
5.350000000000205702e+00 3.769961944516607133e+01
5.370000000000205276e+00 3.721941864770123942e+01
5.390000000000204849e+00 3.672923155667632500e+01
5.410000000000204423e+00 3.661729458324807496e+01
5.430000000000203997e+00 3.608799713084455618e+01
5.450000000000203570e+00 3.597921899798323153e+01
5.470000000000203144e+00 3.592552942343664313e+01
5.490000000000202718e+00 3.562548614652362033e+01
5.510000000000202292e+00 3.504000771302556672e+01
5.530000000000201865e+00 3.487087898562283783e+01
5.550000000000201439e+00 3.432414809042952442e+01
5.570000000000201013e+00 3.436394194214258135e+01
5.590000000000200586e+00 3.391680315762607023e+01
5.610000000000200160e+00 3.345641143438138698e+01
5.630000000000199734e+00 3.328308955890418730e+01
5.650000000000199307e+00 3.304620061726006952e+01
5.670000000000198881e+00 3.279458208020862742e+01
5.690000000000198455e+00 3.275626957522982963e+01
5.710000000000198028e+00 3.204673240559213099e+01
5.730000000000197602e+00 3.249135728295352976e+01
5.750000000000197176e+00 3.196369961528395365e+01
5.770000000000196749e+00 3.127179026141006091e+01
5.790000000000196323e+00 3.133792660918148698e+01
5.810000000000195897e+00 3.076581516219816237e+01
5.830000000000195470e+00 3.061303003069751227e+01
5.850000000000195044e+00 3.063624745760161616e+01
5.870000000000194618e+00 2.990292973111463581e+01
5.890000000000194191e+00 2.997844542147278091e+01
5.910000000000193765e+00 2.971915436793955578e+01
5.930000000000193339e+00 2.903452932804808384e+01
5.950000000000192912e+00 2.898401457501693912e+01
5.970000000000192486e+00 2.875477859150403503e+01
5.990000000000192060e+00 2.868630117770435817e+01
6.010000000000191633e+00 2.820805043378187804e+01
6.030000000000191207e+00 2.836443458918198601e+01
6.050000000000190781e+00 2.773930966480019933e+01
6.070000000000190354e+00 2.781966462435415366e+01
6.090000000000189928e+00 2.757422244944063294e+01
6.110000000000189502e+00 2.723348249869331283e+01
6.130000000000189075e+00 2.742439138800203935e+01
6.150000000000188649e+00 2.698683991835095952e+01
6.170000000000188223e+00 2.659475303365928056e+01
6.190000000000187796e+00 2.634502051366981945e+01
6.210000000000187370e+00 2.608898542464957515e+01
6.230000000000186944e+00 2.605105166605815725e+01
6.250000000000186517e+00 2.553680014713099311e+01
6.270000000000186091e+00 2.596552397850944516e+01
6.290000000000185665e+00 2.535647673615724074e+01
6.310000000000185238e+00 2.525319778366974433e+01
6.330000000000184812e+00 2.509093772846022574e+01
6.350000000000184386e+00 2.484625174767153055e+01
6.370000000000183960e+00 2.491914660898243739e+01
6.390000000000183533e+00 2.466815369397563984e+01
6.410000000000183107e+00 2.424554750348090337e+01
6.430000000000182681e+00 2.437519072701641676e+01
6.450000000000182254e+00 2.426808068685437547e+01
6.470000000000181828e+00 2.402051190021195737e+01
6.490000000000181402e+00 2.395475781755077804e+01
6.510000000000180975e+00 2.331058093167094114e+01
6.530000000000180549e+00 2.358541481849694676e+01
6.550000000000180123e+00 2.333297674911413466e+01
6.570000000000179696e+00 2.325180199036558548e+01
6.590000000000179270e+00 2.296321250236067968e+01
6.610000000000178844e+00 2.265481634564727997e+01
6.630000000000178417e+00 2.282571995119638331e+01
6.650000000000177991e+00 2.271139110563057528e+01
6.670000000000177565e+00 2.260315668387866950e+01
6.690000000000177138e+00 2.242754782163977723e+01
6.710000000000176712e+00 2.188351023398827877e+01
6.730000000000176286e+00 2.219603256479798858e+01
6.750000000000175859e+00 2.198111819776539022e+01
6.770000000000175433e+00 2.149931040565846985e+01
6.790000000000175007e+00 2.186591406294878226e+01
6.810000000000174580e+00 2.145837414502570795e+01
6.830000000000174154e+00 2.151535661295802981e+01
6.850000000000173728e+00 2.107343852644000037e+01
6.870000000000173301e+00 2.094258190453657775e+01
6.890000000000172875e+00 2.117374808656278162e+01
6.910000000000172449e+00 2.099291780350448988e+01
6.930000000000172022e+00 2.073381718493310544e+01
6.950000000000171596e+00 2.077662291777093273e+01
6.970000000000171170e+00 2.064218894754050737e+01
6.990000000000170743e+00 2.066164871107842060e+01
7.010000000000170317e+00 2.037150435159324147e+01
7.030000000000169891e+00 2.025920710332946939e+01
7.050000000000169464e+00 1.982561438438012758e+01
7.070000000000169038e+00 2.011590918088359103e+01
7.090000000000168612e+00 1.996103960696349944e+01
7.110000000000168185e+00 1.971108730859759817e+01
7.130000000000167759e+00 1.969244780825385277e+01
7.150000000000167333e+00 1.995324486592613411e+01
7.170000000000166906e+00 1.981752761083574299e+01
7.190000000000166480e+00 1.947598318477313839e+01
7.210000000000166054e+00 1.934766015722658494e+01
7.230000000000165628e+00 1.925168210822235437e+01
7.250000000000165201e+00 1.887977724826372139e+01
7.270000000000164775e+00 1.887031583119858524e+01
7.290000000000164349e+00 1.905295858901639861e+01
7.310000000000163922e+00 1.864639499794913036e+01
7.330000000000163496e+00 1.871709041581583222e+01
7.350000000000163070e+00 1.896691190083712897e+01
7.370000000000162643e+00 1.869353406685239705e+01
7.390000000000162217e+00 1.857115749177662067e+01
7.410000000000161791e+00 1.842459247730598904e+01
7.430000000000161364e+00 1.819772635326171084e+01
7.450000000000160938e+00 1.820646816647205668e+01
7.470000000000160512e+00 1.804497592375164317e+01
7.490000000000160085e+00 1.825554171389765301e+01
7.510000000000159659e+00 1.784894525852373448e+01
7.530000000000159233e+00 1.792406152145288090e+01
7.550000000000158806e+00 1.779108863192907819e+01
7.570000000000158380e+00 1.794125547155666922e+01
7.590000000000157954e+00 1.777271830325591750e+01
7.610000000000157527e+00 1.796025151754959381e+01
7.630000000000157101e+00 1.783457384538885648e+01
7.650000000000156675e+00 1.779586740056042160e+01
7.670000000000156248e+00 1.754980009393183238e+01
7.690000000000155822e+00 1.770174179137341142e+01
7.710000000000155396e+00 1.768432265515047064e+01
7.730000000000154969e+00 1.742435582663953397e+01
7.750000000000154543e+00 1.754628155481350404e+01
7.770000000000154117e+00 1.753920964081289213e+01
7.790000000000153690e+00 1.750282695316531445e+01
7.810000000000153264e+00 1.751981010437334874e+01
7.830000000000152838e+00 1.756250788314247302e+01
7.850000000000152411e+00 1.734020733859704677e+01
7.870000000000151985e+00 1.751940520962090631e+01
7.890000000000151559e+00 1.735993577043395675e+01
7.910000000000151132e+00 1.756772266903799462e+01
7.930000000000150706e+00 1.749557916933792256e+01
7.950000000000150280e+00 1.738590888717603633e+01
7.970000000000149853e+00 1.728082676867226297e+01
