# Redshift		Merger Rate Density [Gpc^-3yr^-1]
1.000000000031931770e-02 3.458097531393563173e+01
3.000000000031888964e-02 3.603263544014439645e+01
5.000000000031846331e-02 3.790223394704560889e+01
7.000000000031804392e-02 3.948083376856187243e+01
9.000000000031761760e-02 4.117989892481794811e+01
1.100000000003171913e-01 4.272378063889944855e+01
1.300000000003167511e-01 4.481592079584996924e+01
1.500000000003163247e-01 4.660801829230851467e+01
1.700000000003158984e-01 4.867800229272539525e+01
1.900000000003154721e-01 5.054071390977217959e+01
2.100000000003150458e-01 5.300927741791497994e+01
2.300000000003146194e-01 5.485151857249366003e+01
2.500000000003141931e-01 5.677662919331459079e+01
2.700000000003137668e-01 5.905822977600460177e+01
2.900000000003133405e-01 6.137232871226284914e+01
3.100000000003129141e-01 6.369735687776634592e+01
3.300000000003124878e-01 6.606954066849066010e+01
3.500000000003120615e-01 6.843165475337539760e+01
3.700000000003116352e-01 7.067013464101727038e+01
3.900000000003112088e-01 7.315087088722103204e+01
4.100000000003107825e-01 7.580721242158887208e+01
4.300000000003103562e-01 7.785586514325183316e+01
4.500000000003099299e-01 8.072709250089552313e+01
4.700000000003095035e-01 8.297725337862608797e+01
4.900000000003090772e-01 8.555338926190808024e+01
5.100000000003086509e-01 8.839782535213893766e+01
5.300000000003082246e-01 9.108562954159845049e+01
5.500000000003077982e-01 9.355800853426484309e+01
5.700000000003073719e-01 9.668908128455228734e+01
5.900000000003069456e-01 9.894960073818792523e+01
6.100000000003065193e-01 1.013329758064687383e+02
6.300000000003060929e-01 1.043701399299397394e+02
6.500000000003056666e-01 1.072292219936064583e+02
6.700000000003052403e-01 1.099925644711480857e+02
6.900000000003048140e-01 1.123991277501509956e+02
7.100000000003043876e-01 1.152449855991183512e+02
7.300000000003039613e-01 1.178713997444749424e+02
7.500000000003035350e-01 1.207757012799689988e+02
7.700000000003031086e-01 1.237830702844977253e+02
7.900000000003026823e-01 1.269719990175535997e+02
8.100000000003022560e-01 1.301772382532798531e+02
8.300000000003018297e-01 1.325505664257322849e+02
8.500000000003014033e-01 1.358032445172735265e+02
8.700000000003009770e-01 1.390461148453350688e+02
8.900000000003005507e-01 1.413925037339358539e+02
9.100000000003001244e-01 1.444573024349419939e+02
9.300000000002996980e-01 1.470339365118152557e+02
9.500000000002992717e-01 1.507714467025096781e+02
9.700000000002988454e-01 1.536805456203402969e+02
9.900000000002984191e-01 1.556992214794557583e+02
1.010000000000297993e+00 1.589478149868982086e+02
1.030000000000297566e+00 1.621107895309223750e+02
1.050000000000297140e+00 1.648233732200682766e+02
1.070000000000296714e+00 1.676605338064989041e+02
1.090000000000296287e+00 1.702703534311497151e+02
1.110000000000295861e+00 1.737306537087343088e+02
1.130000000000295435e+00 1.759613673962352323e+02
1.150000000000295008e+00 1.783756344810541066e+02
1.170000000000294582e+00 1.816688785116733982e+02
1.190000000000294156e+00 1.841209382386457207e+02
1.210000000000293729e+00 1.861826738938896995e+02
1.230000000000293303e+00 1.894906193343747418e+02
1.250000000000292877e+00 1.916152681067191565e+02
1.270000000000292451e+00 1.945409177183203724e+02
1.290000000000292024e+00 1.960790713008777004e+02
1.310000000000291598e+00 1.988686212378588323e+02
1.330000000000291172e+00 2.009838242625849034e+02
1.350000000000290745e+00 2.040237604900022461e+02
1.370000000000290319e+00 2.056161231048571949e+02
1.390000000000289893e+00 2.072942927974625320e+02
1.410000000000289466e+00 2.097055640234291047e+02
1.430000000000289040e+00 2.114999776839757430e+02
1.450000000000288614e+00 2.122186246469902642e+02
1.470000000000288187e+00 2.153295174021330922e+02
1.490000000000287761e+00 2.164762423410302290e+02
1.510000000000287335e+00 2.177848952947298358e+02
1.530000000000286908e+00 2.195781033597500596e+02
1.550000000000286482e+00 2.221439450792874482e+02
1.570000000000286056e+00 2.233123005318028049e+02
1.590000000000285629e+00 2.230832980986347422e+02
1.610000000000285203e+00 2.253112464159386832e+02
1.630000000000284777e+00 2.262334863658892345e+02
1.650000000000284350e+00 2.279501787315995216e+02
1.670000000000283924e+00 2.285207669327576241e+02
1.690000000000283498e+00 2.290953351692068622e+02
1.710000000000283071e+00 2.299645349764446109e+02
1.730000000000282645e+00 2.310977987159816678e+02
1.750000000000282219e+00 2.305919960412967669e+02
1.770000000000281792e+00 2.311019395193371793e+02
1.790000000000281366e+00 2.319033799911804579e+02
1.810000000000280940e+00 2.348477614649491159e+02
1.830000000000280513e+00 2.355762189448915080e+02
1.850000000000280087e+00 2.350469738195264995e+02
1.870000000000279661e+00 2.365689382498181317e+02
1.890000000000279234e+00 2.370962043974469111e+02
1.910000000000278808e+00 2.424844183219730667e+02
1.930000000000278382e+00 2.464259470403176806e+02
1.950000000000277955e+00 2.484353047178823317e+02
1.970000000000277529e+00 2.449113591350453021e+02
1.990000000000277103e+00 2.390992635805959310e+02
2.010000000000276899e+00 2.340643747557659822e+02
2.030000000000276472e+00 2.318213537439366689e+02
2.050000000000276046e+00 2.295930045360991585e+02
2.070000000000275620e+00 2.272113182572207108e+02
2.090000000000275193e+00 2.247063979664189617e+02
2.110000000000274767e+00 2.206372699282732412e+02
2.130000000000274341e+00 2.197599697786014303e+02
2.150000000000273914e+00 2.178315882719467140e+02
2.170000000000273488e+00 2.163186742448760072e+02
2.190000000000273062e+00 2.136121851305237271e+02
2.210000000000272635e+00 2.127055153063634805e+02
2.230000000000272209e+00 2.108558434046253751e+02
2.250000000000271783e+00 2.092459102564604621e+02
2.270000000000271356e+00 2.077499293738988513e+02
2.290000000000270930e+00 2.061753537435137105e+02
2.310000000000270504e+00 2.044964395374266815e+02
2.330000000000270077e+00 2.028286231935019828e+02
2.350000000000269651e+00 2.011383678613568691e+02
2.370000000000269225e+00 1.993352836919661115e+02
2.390000000000268798e+00 1.976201890260774690e+02
2.410000000000268372e+00 1.959135086775490322e+02
2.430000000000267946e+00 1.940841652302158877e+02
2.450000000000267519e+00 1.924364593932639309e+02
2.470000000000267093e+00 1.904939512900239436e+02
2.490000000000266667e+00 1.880376412974136144e+02
2.510000000000266240e+00 1.864015165435900201e+02
2.530000000000265814e+00 1.845858553886055233e+02
2.550000000000265388e+00 1.826141734253538687e+02
2.570000000000264961e+00 1.811452256119604840e+02
2.590000000000264535e+00 1.782545651321889864e+02
2.610000000000264109e+00 1.768481206938441517e+02
2.630000000000263682e+00 1.748559134113817208e+02
2.650000000000263256e+00 1.727539072178025492e+02
2.670000000000262830e+00 1.707694296467058734e+02
2.690000000000262403e+00 1.690621148185798859e+02
2.710000000000261977e+00 1.667577161070855709e+02
2.730000000000261551e+00 1.647077792338522499e+02
2.750000000000261124e+00 1.627229655780337794e+02
2.770000000000260698e+00 1.608047509697594251e+02
2.790000000000260272e+00 1.589642015890116795e+02
2.810000000000259845e+00 1.567334679021710997e+02
2.830000000000259419e+00 1.549202241042936237e+02
2.850000000000258993e+00 1.527073741198608161e+02
2.870000000000258567e+00 1.511108915553025156e+02
2.890000000000258140e+00 1.486860388327049236e+02
2.910000000000257714e+00 1.468421283884136415e+02
2.930000000000257288e+00 1.452386930768579987e+02
2.950000000000256861e+00 1.430248502926734204e+02
2.970000000000256435e+00 1.416013924285583983e+02
2.990000000000256009e+00 1.392003204118453823e+02
3.010000000000255582e+00 1.375032565256586281e+02
3.030000000000255156e+00 1.358414340415552033e+02
3.050000000000254730e+00 1.339601832390806351e+02
3.070000000000254303e+00 1.319959391857942990e+02
3.090000000000253877e+00 1.302523037013351654e+02
3.110000000000253451e+00 1.285759188517023119e+02
3.130000000000253024e+00 1.262772727554631729e+02
3.150000000000252598e+00 1.252835272433763691e+02
3.170000000000252172e+00 1.231190577301532585e+02
3.190000000000251745e+00 1.217154969629933987e+02
3.210000000000251319e+00 1.203241673536172840e+02
3.230000000000250893e+00 1.183128828398982932e+02
3.250000000000250466e+00 1.167587535875638736e+02
3.270000000000250040e+00 1.153725180795715630e+02
3.290000000000249614e+00 1.137594054272441184e+02
3.310000000000249187e+00 1.123512417040015663e+02
3.330000000000248761e+00 1.114501077675251111e+02
3.350000000000248335e+00 1.102916776786213688e+02
3.370000000000247908e+00 1.092744953541915720e+02
3.390000000000247482e+00 1.095405166844342233e+02
3.410000000000247056e+00 1.080556960300888960e+02
3.430000000000246629e+00 1.073661228623401342e+02
3.450000000000246203e+00 1.047681992021463344e+02
3.470000000000245777e+00 1.029838008205840083e+02
3.490000000000245350e+00 1.024242468030940501e+02
3.510000000000244924e+00 1.002709944003364342e+02
3.530000000000244498e+00 9.923666252055261339e+01
3.550000000000244071e+00 9.760668630803927215e+01
3.570000000000243645e+00 9.687471777182268795e+01
3.590000000000243219e+00 9.604087513491624861e+01
3.610000000000242792e+00 9.446470266865371457e+01
3.630000000000242366e+00 9.318230921458298610e+01
3.650000000000241940e+00 9.128548416847333158e+01
3.670000000000241513e+00 8.927482671428222716e+01
3.690000000000241087e+00 8.853483845930277596e+01
3.710000000000240661e+00 8.684877827582627674e+01
3.730000000000240234e+00 8.456954604272414144e+01
3.750000000000239808e+00 8.334247193078336124e+01
3.770000000000239382e+00 8.233597219113757149e+01
3.790000000000238956e+00 8.064036048360172515e+01
3.810000000000238529e+00 7.965668438550090968e+01
3.830000000000238103e+00 7.808334527979374684e+01
3.850000000000237677e+00 7.721146256021425813e+01
3.870000000000237250e+00 7.615772102553162881e+01
3.890000000000236824e+00 7.545012379051854623e+01
3.910000000000236398e+00 7.430149256200239449e+01
3.930000000000235971e+00 7.351136839064621142e+01
3.950000000000235545e+00 7.275811438906490025e+01
3.970000000000235119e+00 7.208326207463149160e+01
3.990000000000234692e+00 7.086405107294206118e+01
4.010000000000234266e+00 7.016377657279933544e+01
4.030000000000233840e+00 6.923973227520033902e+01
4.050000000000233413e+00 6.865615502013527305e+01
4.070000000000232987e+00 6.809169991558640334e+01
4.090000000000232561e+00 6.707570580798612525e+01
4.110000000000232134e+00 6.644743386339447966e+01
4.130000000000231708e+00 6.577160564106758045e+01
4.150000000000231282e+00 6.520438699352014567e+01
4.170000000000230855e+00 6.422667546430973573e+01
4.190000000000230429e+00 6.356080626677491097e+01
4.210000000000230003e+00 6.318120866276474601e+01
4.230000000000229576e+00 6.245067349111585742e+01
4.250000000000229150e+00 6.207086574240951649e+01
4.270000000000228724e+00 6.171074352315010003e+01
4.290000000000228297e+00 6.217654724937205657e+01
4.310000000000227871e+00 6.118853736195424631e+01
4.330000000000227445e+00 6.150844036858620711e+01
4.350000000000227018e+00 6.073840276884829592e+01
4.370000000000226592e+00 6.087174579821979137e+01
4.390000000000226166e+00 6.074056488548308863e+01
4.410000000000225739e+00 5.932558677830959226e+01
4.430000000000225313e+00 5.808252193780975858e+01
4.450000000000224887e+00 5.764220794665902758e+01
4.470000000000224460e+00 5.709548394778618530e+01
4.490000000000224034e+00 5.657562360317388084e+01
4.510000000000223608e+00 5.567201865229128543e+01
4.530000000000223181e+00 5.530058253830981840e+01
4.550000000000222755e+00 5.424351426855083247e+01
4.570000000000222329e+00 5.394198327116792058e+01
4.590000000000221902e+00 5.282386975351396075e+01
4.610000000000221476e+00 5.282891977757697077e+01
4.630000000000221050e+00 5.225889695979670790e+01
4.650000000000220624e+00 5.184621408672041554e+01
4.670000000000220197e+00 5.154681773225996722e+01
4.690000000000219771e+00 5.095734818685524914e+01
4.710000000000219345e+00 4.983834700139488660e+01
4.730000000000218918e+00 4.924846430317135315e+01
4.750000000000218492e+00 4.835454791489571136e+01
4.770000000000218066e+00 4.808168186354203044e+01
4.790000000000217639e+00 4.760201752073653836e+01
4.810000000000217213e+00 4.684389375024151292e+01
4.830000000000216787e+00 4.655883209298009007e+01
4.850000000000216360e+00 4.593528883579143951e+01
4.870000000000215934e+00 4.557518542659481398e+01
4.890000000000215508e+00 4.514129228492986812e+01
4.910000000000215081e+00 4.474505651706330411e+01
4.930000000000214655e+00 4.406844398518869355e+01
4.950000000000214229e+00 4.392850264136938421e+01
4.970000000000213802e+00 4.368969932394860223e+01
4.990000000000213376e+00 4.317156113628122682e+01
5.010000000000212950e+00 4.321966830259784587e+01
5.030000000000212523e+00 4.291852781486061019e+01
5.050000000000212097e+00 4.334040009407493699e+01
5.070000000000211671e+00 4.231678866216849144e+01
5.090000000000211244e+00 4.250567306313431004e+01
5.110000000000210818e+00 4.161787953251005234e+01
5.130000000000210392e+00 4.198128004947253800e+01
5.150000000000209965e+00 4.134279397947010182e+01
5.170000000000209539e+00 4.084920733458449149e+01
5.190000000000209113e+00 3.958209787229869647e+01
5.210000000000208686e+00 3.918780302443165908e+01
5.230000000000208260e+00 3.907580920025068849e+01
5.250000000000207834e+00 3.846817566580480729e+01
5.270000000000207407e+00 3.809907162966687366e+01
5.290000000000206981e+00 3.747268392026253991e+01
5.310000000000206555e+00 3.731635867102449566e+01
5.330000000000206128e+00 3.715720472361138604e+01
5.350000000000205702e+00 3.644504605818751486e+01
5.370000000000205276e+00 3.639527121039289881e+01
5.390000000000204849e+00 3.547372211604739789e+01
5.410000000000204423e+00 3.528320113819539472e+01
5.430000000000203997e+00 3.500378397370096195e+01
5.450000000000203570e+00 3.418157724400586517e+01
5.470000000000203144e+00 3.410656544477950547e+01
5.490000000000202718e+00 3.400080475624967846e+01
5.510000000000202292e+00 3.339718488028198351e+01
5.530000000000201865e+00 3.281732677970594381e+01
5.550000000000201439e+00 3.228675431079015112e+01
5.570000000000201013e+00 3.172333393873116236e+01
5.590000000000200586e+00 3.151042299355278331e+01
5.610000000000200160e+00 3.114804648559964306e+01
5.630000000000199734e+00 3.091312385856324596e+01
5.650000000000199307e+00 3.094620625678934545e+01
5.670000000000198881e+00 3.055843830529955341e+01
5.690000000000198455e+00 3.054379958851158605e+01
5.710000000000198028e+00 2.984649287362257652e+01
5.730000000000197602e+00 2.971473754629614916e+01
5.750000000000197176e+00 2.916327884746469934e+01
5.770000000000196749e+00 2.897631395786430986e+01
5.790000000000196323e+00 2.866765507610749353e+01
5.810000000000195897e+00 2.810918566604636126e+01
5.830000000000195470e+00 2.726116278173610752e+01
5.850000000000195044e+00 2.655395459544070746e+01
5.870000000000194618e+00 2.662268189686204778e+01
5.890000000000194191e+00 2.619971515362893655e+01
5.910000000000193765e+00 2.563630619681634215e+01
5.930000000000193339e+00 2.532640767386864056e+01
5.950000000000192912e+00 2.484102456303473261e+01
5.970000000000192486e+00 2.438924010585822799e+01
5.990000000000192060e+00 2.437781023987576035e+01
6.010000000000191633e+00 2.373695671237969407e+01
6.030000000000191207e+00 2.366411540201795205e+01
6.050000000000190781e+00 2.305498697678085662e+01
6.070000000000190354e+00 2.241330764087603100e+01
6.090000000000189928e+00 2.238542662806031558e+01
6.110000000000189502e+00 2.161504420391299064e+01
6.130000000000189075e+00 2.113896253479009602e+01
6.150000000000188649e+00 2.087900161951930755e+01
6.170000000000188223e+00 2.088244589173097765e+01
6.190000000000187796e+00 2.061924408270028408e+01
6.210000000000187370e+00 2.016939868742194264e+01
6.230000000000186944e+00 1.957162553106233815e+01
6.250000000000186517e+00 1.929125389489227516e+01
6.270000000000186091e+00 1.868665236247081296e+01
6.290000000000185665e+00 1.819201766826242306e+01
6.310000000000185238e+00 1.770518822842966244e+01
6.330000000000184812e+00 1.729344760776882950e+01
6.350000000000184386e+00 1.702768089843410948e+01
6.370000000000183960e+00 1.631429423050550653e+01
6.390000000000183533e+00 1.568496985462996385e+01
6.410000000000183107e+00 1.509108870957335036e+01
6.430000000000182681e+00 1.478972115587620983e+01
6.450000000000182254e+00 1.457292833041677582e+01
6.470000000000181828e+00 1.409056979452882175e+01
6.490000000000181402e+00 1.356873544894499872e+01
6.510000000000180975e+00 1.318802800912286166e+01
6.530000000000180549e+00 1.277957617543058966e+01
6.550000000000180123e+00 1.237730790284680360e+01
6.570000000000179696e+00 1.217679247859529390e+01
6.590000000000179270e+00 1.163765901559424165e+01
6.610000000000178844e+00 1.132156937323141754e+01
6.630000000000178417e+00 1.098534514403561779e+01
6.650000000000177991e+00 1.046033492603420889e+01
6.670000000000177565e+00 1.024413796416666500e+01
6.690000000000177138e+00 9.926131510465765473e+00
6.710000000000176712e+00 9.357747456360334226e+00
6.730000000000176286e+00 9.087903792810372749e+00
6.750000000000175859e+00 8.826088796864166142e+00
6.770000000000175433e+00 8.564092489472072245e+00
6.790000000000175007e+00 8.064455950325816858e+00
6.810000000000174580e+00 7.725694364944256876e+00
6.830000000000174154e+00 7.380501597468773767e+00
6.850000000000173728e+00 7.059447972480475286e+00
6.870000000000173301e+00 6.632137732604224567e+00
6.890000000000172875e+00 6.230207412814177559e+00
6.910000000000172449e+00 5.803318329033255729e+00
6.930000000000172022e+00 5.570217032314610961e+00
6.950000000000171596e+00 5.357094657655910197e+00
6.970000000000171170e+00 5.089883667518718902e+00
6.990000000000170743e+00 4.818561132498463628e+00
7.010000000000170317e+00 4.525385092532490994e+00
7.030000000000169891e+00 4.337215166134885891e+00
7.050000000000169464e+00 4.048201087036003010e+00
7.070000000000169038e+00 3.894188279661066066e+00
7.090000000000168612e+00 3.728800853586019759e+00
7.110000000000168185e+00 3.506708396006098294e+00
7.130000000000167759e+00 3.344409745138929413e+00
7.150000000000167333e+00 3.182407076405433521e+00
7.170000000000166906e+00 2.936320191537093560e+00
7.190000000000166480e+00 2.772746982513639047e+00
7.210000000000166054e+00 2.629977067739670549e+00
7.230000000000165628e+00 2.515996360647603680e+00
7.250000000000165201e+00 2.315827451156298178e+00
7.270000000000164775e+00 2.167337819602608739e+00
7.290000000000164349e+00 2.068711570311855041e+00
7.310000000000163922e+00 1.911009808047688496e+00
7.330000000000163496e+00 1.759087308151199291e+00
7.350000000000163070e+00 1.629849974954920455e+00
7.370000000000162643e+00 1.510484654845291708e+00
7.390000000000162217e+00 1.407373707374850458e+00
7.410000000000161791e+00 1.340143589501538779e+00
7.430000000000161364e+00 1.237918676701631693e+00
7.450000000000160938e+00 1.161022754948052071e+00
7.470000000000160512e+00 1.080376307924174384e+00
7.490000000000160085e+00 1.016804269524277160e+00
7.510000000000159659e+00 1.003804566096194284e+00
7.530000000000159233e+00 9.013590474688720766e-01
7.550000000000158806e+00 8.467443782363083260e-01
7.570000000000158380e+00 8.057631364583630607e-01
7.590000000000157954e+00 7.656174246340771150e-01
7.610000000000157527e+00 7.120258003081839648e-01
7.630000000000157101e+00 6.801305804770741981e-01
7.650000000000156675e+00 6.725552524435585156e-01
7.670000000000156248e+00 6.408211496426949871e-01
7.690000000000155822e+00 5.680442401756519155e-01
7.710000000000155396e+00 5.483058484877691985e-01
7.730000000000154969e+00 4.853810314730297448e-01
7.750000000000154543e+00 4.567066162901395332e-01
7.770000000000154117e+00 4.509784992689058192e-01
7.790000000000153690e+00 4.082894977132496828e-01
7.810000000000153264e+00 3.871408617757401416e-01
7.830000000000152838e+00 3.685065717336765689e-01
7.850000000000152411e+00 3.521517051754569638e-01
7.870000000000151985e+00 3.354989390525962567e-01
7.890000000000151559e+00 3.256703913345367907e-01
7.910000000000151132e+00 3.059240091973742803e-01
7.930000000000150706e+00 2.933625118152902722e-01
7.950000000000150280e+00 2.808554999988484568e-01
7.970000000000149853e+00 2.694255805908290502e-01
