# Redshift		Merger Rate Density [Gpc^-3yr^-1]
1.000000000031931770e-02 2.141308769757566566e+01
3.000000000031888964e-02 2.229750475256205533e+01
5.000000000031846331e-02 2.340412315138727806e+01
7.000000000031804392e-02 2.442798928469059305e+01
9.000000000031761760e-02 2.542350544408525082e+01
1.100000000003171913e-01 2.657737182421711708e+01
1.300000000003167511e-01 2.767844304211042328e+01
1.500000000003163247e-01 2.878055479139477768e+01
1.700000000003158984e-01 3.004850065395780945e+01
1.900000000003154721e-01 3.115240838658717237e+01
2.100000000003150458e-01 3.239526633560780766e+01
2.300000000003146194e-01 3.365693391336491658e+01
2.500000000003141931e-01 3.499635911892599438e+01
2.700000000003137668e-01 3.621011828874323868e+01
2.900000000003133405e-01 3.760880465057063304e+01
3.100000000003129141e-01 3.895270284928975713e+01
3.300000000003124878e-01 4.031572977846737871e+01
3.500000000003120615e-01 4.173089999413977580e+01
3.700000000003116352e-01 4.324038233719140578e+01
3.900000000003112088e-01 4.458330958305859326e+01
4.100000000003107825e-01 4.615832977240974344e+01
4.300000000003103562e-01 4.759847830928124068e+01
4.500000000003099299e-01 4.910015662700500627e+01
4.700000000003095035e-01 5.072150390879479431e+01
4.900000000003090772e-01 5.222041832895487090e+01
5.100000000003086509e-01 5.392998932949623025e+01
5.300000000003082246e-01 5.539610447378888125e+01
5.500000000003077982e-01 5.716072521970296094e+01
5.700000000003073719e-01 5.877013864710261259e+01
5.900000000003069456e-01 6.051085891350329149e+01
6.100000000003065193e-01 6.230051233192610027e+01
6.300000000003060929e-01 6.396733877861937856e+01
6.500000000003056666e-01 6.561377013168950612e+01
6.700000000003052403e-01 6.755835485284939068e+01
6.900000000003048140e-01 6.930806212361770235e+01
7.100000000003043876e-01 7.106164333982698622e+01
7.300000000003039613e-01 7.296776160214322715e+01
7.500000000003035350e-01 7.482620127891387085e+01
7.700000000003031086e-01 7.661853097193910855e+01
7.900000000003026823e-01 7.864949614250492971e+01
8.100000000003022560e-01 8.045870645921289110e+01
8.300000000003018297e-01 8.249673057317981772e+01
8.500000000003014033e-01 8.420292833444970881e+01
8.700000000003009770e-01 8.621512524969563174e+01
8.900000000003005507e-01 8.810220757886895626e+01
9.100000000003001244e-01 9.014242709796080533e+01
9.300000000002996980e-01 9.198067114882073270e+01
9.500000000002992717e-01 9.385084793983924101e+01
9.700000000002988454e-01 9.577841420041124820e+01
9.900000000002984191e-01 9.774912544012957483e+01
1.010000000000297993e+00 9.987296918438387650e+01
1.030000000000297566e+00 1.019555905993250633e+02
1.050000000000297140e+00 1.036933099813961405e+02
1.070000000000296714e+00 1.055379346358733272e+02
1.090000000000296287e+00 1.077004290721478696e+02
1.110000000000295861e+00 1.096501758110220521e+02
1.130000000000295435e+00 1.115401632552499649e+02
1.150000000000295008e+00 1.132840451663549857e+02
1.170000000000294582e+00 1.152220710123964835e+02
1.190000000000294156e+00 1.173019858614120920e+02
1.210000000000293729e+00 1.190971456285362819e+02
1.230000000000293303e+00 1.206565991272816518e+02
1.250000000000292877e+00 1.225196766717552919e+02
1.270000000000292451e+00 1.243936413083932990e+02
1.290000000000292024e+00 1.266216741940983326e+02
1.310000000000291598e+00 1.279889401894131566e+02
1.330000000000291172e+00 1.298972979185422503e+02
1.350000000000290745e+00 1.316253605296204796e+02
1.370000000000290319e+00 1.331508157485876040e+02
1.390000000000289893e+00 1.348423576063459279e+02
1.410000000000289466e+00 1.365407451117295636e+02
1.430000000000289040e+00 1.377078602866754409e+02
1.450000000000288614e+00 1.392252032665138302e+02
1.470000000000288187e+00 1.407850657690014771e+02
1.490000000000287761e+00 1.420493285466953921e+02
1.510000000000287335e+00 1.439427909160400247e+02
1.530000000000286908e+00 1.447800552855201772e+02
1.550000000000286482e+00 1.460031672067766806e+02
1.570000000000286056e+00 1.469926146328095626e+02
1.590000000000285629e+00 1.479640369031579610e+02
1.610000000000285203e+00 1.493376487642175618e+02
1.630000000000284777e+00 1.503215255424999839e+02
1.650000000000284350e+00 1.515351478839778849e+02
1.670000000000283924e+00 1.525291418176692275e+02
1.690000000000283498e+00 1.537553129033812525e+02
1.710000000000283071e+00 1.544243228636896959e+02
1.730000000000282645e+00 1.544810322880930471e+02
1.750000000000282219e+00 1.550222027513080718e+02
1.770000000000281792e+00 1.560737676743186171e+02
1.790000000000281366e+00 1.565073202884425712e+02
1.810000000000280940e+00 1.571299271576004060e+02
1.830000000000280513e+00 1.566655176343669211e+02
1.850000000000280087e+00 1.564934288443715786e+02
1.870000000000279661e+00 1.581365319692324363e+02
1.890000000000279234e+00 1.586853029129515846e+02
1.910000000000278808e+00 1.580485194278124936e+02
1.930000000000278382e+00 1.574710268816759822e+02
1.950000000000277955e+00 1.560561727062967066e+02
1.970000000000277529e+00 1.553464732605930578e+02
1.990000000000277103e+00 1.553522445002230370e+02
2.010000000000276899e+00 1.552384411769763233e+02
2.030000000000276472e+00 1.545321523456891271e+02
2.050000000000276046e+00 1.539636939709880608e+02
2.070000000000275620e+00 1.531885396412311593e+02
2.090000000000275193e+00 1.528920097137808796e+02
2.110000000000274767e+00 1.517947769735309294e+02
2.130000000000274341e+00 1.509442771210289607e+02
2.150000000000273914e+00 1.505891691678075972e+02
2.170000000000273488e+00 1.493433025592778165e+02
2.190000000000273062e+00 1.485903359795093195e+02
2.210000000000272635e+00 1.476024427412105524e+02
2.230000000000272209e+00 1.467547751186026517e+02
2.250000000000271783e+00 1.456441091479813963e+02
2.270000000000271356e+00 1.446845250943231918e+02
2.290000000000270930e+00 1.439432308893060224e+02
2.310000000000270504e+00 1.428928543050999451e+02
2.330000000000270077e+00 1.419948630503076004e+02
2.350000000000269651e+00 1.405787438157801432e+02
2.370000000000269225e+00 1.391756806188053304e+02
2.390000000000268798e+00 1.381874175520813424e+02
2.410000000000268372e+00 1.371392990376741068e+02
2.430000000000267946e+00 1.358861369399068622e+02
2.450000000000267519e+00 1.342842036980374871e+02
2.470000000000267093e+00 1.325323217832079763e+02
2.490000000000266667e+00 1.316868388848389486e+02
2.510000000000266240e+00 1.302177938847922860e+02
2.530000000000265814e+00 1.288682065495844711e+02
2.550000000000265388e+00 1.274772650998068002e+02
2.570000000000264961e+00 1.265296991945156435e+02
2.590000000000264535e+00 1.247546404392690818e+02
2.610000000000264109e+00 1.234013164501481015e+02
2.630000000000263682e+00 1.223560764851741425e+02
2.650000000000263256e+00 1.208499062792602530e+02
2.670000000000262830e+00 1.191596359503372611e+02
2.690000000000262403e+00 1.176646440927276558e+02
2.710000000000261977e+00 1.159728446685344778e+02
2.730000000000261551e+00 1.145495427019638015e+02
2.750000000000261124e+00 1.129759521780582077e+02
2.770000000000260698e+00 1.114771966256248135e+02
2.790000000000260272e+00 1.100073524647770142e+02
2.810000000000259845e+00 1.086616702150091669e+02
2.830000000000259419e+00 1.067118549750448153e+02
2.850000000000258993e+00 1.053496029714818292e+02
2.870000000000258567e+00 1.038947651874262590e+02
2.890000000000258140e+00 1.026465659114736866e+02
2.910000000000257714e+00 1.011409770129708505e+02
2.930000000000257288e+00 1.000285460928168959e+02
2.950000000000256861e+00 9.861843865740497961e+01
2.970000000000256435e+00 9.739209480468342406e+01
2.990000000000256009e+00 9.591260072321632890e+01
3.010000000000255582e+00 9.460142008718480611e+01
3.030000000000255156e+00 9.317579815104731722e+01
3.050000000000254730e+00 9.185950458524939677e+01
3.070000000000254303e+00 9.063261816768680035e+01
3.090000000000253877e+00 8.924311881539851754e+01
3.110000000000253451e+00 8.811120151390336730e+01
3.130000000000253024e+00 8.690135438942056112e+01
3.150000000000252598e+00 8.579949291551017154e+01
3.170000000000252172e+00 8.448711027586776368e+01
3.190000000000251745e+00 8.350524949871721958e+01
3.210000000000251319e+00 8.244099712441389727e+01
3.230000000000250893e+00 8.177003859993787671e+01
3.250000000000250466e+00 8.058462698135039659e+01
3.270000000000250040e+00 7.923761170190418568e+01
3.290000000000249614e+00 7.799198405894864550e+01
3.310000000000249187e+00 7.652683623123421341e+01
3.330000000000248761e+00 7.548652364524873803e+01
3.350000000000248335e+00 7.460557332146868248e+01
3.370000000000247908e+00 7.336645365385528805e+01
3.390000000000247482e+00 7.244867989133570063e+01
3.410000000000247056e+00 7.143894987884097247e+01
3.430000000000246629e+00 7.019445114544166131e+01
3.450000000000246203e+00 6.905294441873326150e+01
3.470000000000245777e+00 6.790885993092599904e+01
3.490000000000245350e+00 6.738451064162526905e+01
3.510000000000244924e+00 6.642112625167968076e+01
3.530000000000244498e+00 6.542859017811341005e+01
3.550000000000244071e+00 6.444848576188235256e+01
3.570000000000243645e+00 6.333026317972503705e+01
3.590000000000243219e+00 6.224031230931520042e+01
3.610000000000242792e+00 6.122432966606175597e+01
3.630000000000242366e+00 6.023032910900401760e+01
3.650000000000241940e+00 5.938115492937921402e+01
3.670000000000241513e+00 5.858003066107248458e+01
3.690000000000241087e+00 5.762557759533233082e+01
3.710000000000240661e+00 5.685393936511294299e+01
3.730000000000240234e+00 5.600731109433732513e+01
3.750000000000239808e+00 5.518828877230740204e+01
3.770000000000239382e+00 5.427671183641207620e+01
3.790000000000238956e+00 5.339614562030621414e+01
3.810000000000238529e+00 5.246065202619575984e+01
3.830000000000238103e+00 5.178225046964139011e+01
3.850000000000237677e+00 5.101680594481418041e+01
3.870000000000237250e+00 5.032561099423310225e+01
3.890000000000236824e+00 4.949079892307319284e+01
3.910000000000236398e+00 4.880891903239700014e+01
3.930000000000235971e+00 4.817004452136252013e+01
3.950000000000235545e+00 4.740770855623058821e+01
3.970000000000235119e+00 4.669186062366875944e+01
3.990000000000234692e+00 4.600566189381824245e+01
4.010000000000234266e+00 4.541109595966420898e+01
4.030000000000233840e+00 4.474009503192610282e+01
4.050000000000233413e+00 4.408927483528105995e+01
4.070000000000232987e+00 4.341178669561671200e+01
4.090000000000232561e+00 4.288179606652794718e+01
4.110000000000232134e+00 4.239709620265579559e+01
4.130000000000231708e+00 4.191587303027500155e+01
4.150000000000231282e+00 4.143771982161832312e+01
4.170000000000230855e+00 4.081060353222284220e+01
4.190000000000230429e+00 4.052738778508854267e+01
4.210000000000230003e+00 4.006273332569445955e+01
4.230000000000229576e+00 3.942564128923770994e+01
4.250000000000229150e+00 3.870180687859117086e+01
4.270000000000228724e+00 3.804911834277801574e+01
4.290000000000228297e+00 3.739399702829154393e+01
4.310000000000227871e+00 3.692789166309979976e+01
4.330000000000227445e+00 3.660870247565076596e+01
4.350000000000227018e+00 3.598136627152989320e+01
4.370000000000226592e+00 3.544600196676937287e+01
4.390000000000226166e+00 3.495869048949206359e+01
4.410000000000225739e+00 3.448632371863578783e+01
4.430000000000225313e+00 3.410512599087348207e+01
4.450000000000224887e+00 3.367003215156987750e+01
4.470000000000224460e+00 3.298532582689269788e+01
4.490000000000224034e+00 3.250475657699902854e+01
4.510000000000223608e+00 3.218227152348594444e+01
4.530000000000223181e+00 3.185446766639035587e+01
4.550000000000222755e+00 3.140728307330668301e+01
4.570000000000222329e+00 3.092429971024890278e+01
4.590000000000221902e+00 3.058074217534722550e+01
4.610000000000221476e+00 2.991199234033507892e+01
4.630000000000221050e+00 2.954082303757585137e+01
4.650000000000220624e+00 2.915715437030862489e+01
4.670000000000220197e+00 2.868991336380577550e+01
4.690000000000219771e+00 2.828042867234317015e+01
4.710000000000219345e+00 2.785320753576351649e+01
4.730000000000218918e+00 2.750225957536697052e+01
4.750000000000218492e+00 2.712610045645166679e+01
4.770000000000218066e+00 2.682232483303847559e+01
4.790000000000217639e+00 2.645633435481105522e+01
4.810000000000217213e+00 2.603056145844557534e+01
4.830000000000216787e+00 2.566483461127540977e+01
4.850000000000216360e+00 2.524144729754095451e+01
4.870000000000215934e+00 2.500861878606081135e+01
4.890000000000215508e+00 2.460154021280396108e+01
4.910000000000215081e+00 2.424019863419325205e+01
4.930000000000214655e+00 2.406684380017219382e+01
4.950000000000214229e+00 2.385610729238844030e+01
4.970000000000213802e+00 2.346690546282885492e+01
4.990000000000213376e+00 2.308116209623388926e+01
5.010000000000212950e+00 2.282460769985412341e+01
5.030000000000212523e+00 2.243404374795042244e+01
5.050000000000212097e+00 2.201181593255371638e+01
5.070000000000211671e+00 2.165293930757043483e+01
5.090000000000211244e+00 2.151212873949211968e+01
5.110000000000210818e+00 2.131545852182798484e+01
5.130000000000210392e+00 2.085740587738628804e+01
5.150000000000209965e+00 2.071692559009971646e+01
5.170000000000209539e+00 2.041698031015330628e+01
5.190000000000209113e+00 2.009998826994303656e+01
5.210000000000208686e+00 1.995126183652596552e+01
5.230000000000208260e+00 1.978915529757607317e+01
5.250000000000207834e+00 1.930442618286549816e+01
5.270000000000207407e+00 1.913691381392369806e+01
5.290000000000206981e+00 1.877586145457298272e+01
5.310000000000206555e+00 1.857092181317718271e+01
5.330000000000206128e+00 1.833761952214398505e+01
5.350000000000205702e+00 1.812003148289753085e+01
5.370000000000205276e+00 1.786057425453902070e+01
5.390000000000204849e+00 1.759780408688404307e+01
5.410000000000204423e+00 1.732186233605183645e+01
5.430000000000203997e+00 1.700967326686741643e+01
5.450000000000203570e+00 1.677962591563162320e+01
5.470000000000203144e+00 1.653239636781734845e+01
5.490000000000202718e+00 1.632061100169690349e+01
5.510000000000202292e+00 1.610934427040328742e+01
5.530000000000201865e+00 1.591782904507031127e+01
5.550000000000201439e+00 1.579752571410442208e+01
5.570000000000201013e+00 1.568480236065497735e+01
5.590000000000200586e+00 1.539702025233315474e+01
5.610000000000200160e+00 1.519079729659724443e+01
5.630000000000199734e+00 1.497568901279806397e+01
5.650000000000199307e+00 1.474639355230897131e+01
5.670000000000198881e+00 1.450664335640213487e+01
5.690000000000198455e+00 1.424476551715276251e+01
5.710000000000198028e+00 1.403827112590736625e+01
5.730000000000197602e+00 1.380488267429363169e+01
5.750000000000197176e+00 1.367411264830164797e+01
5.770000000000196749e+00 1.336601435041218799e+01
5.790000000000196323e+00 1.320966510984186648e+01
5.810000000000195897e+00 1.302553221849144194e+01
5.830000000000195470e+00 1.281081025162121456e+01
5.850000000000195044e+00 1.273737644882017328e+01
5.870000000000194618e+00 1.256066483814289825e+01
5.890000000000194191e+00 1.246998403687084966e+01
5.910000000000193765e+00 1.213260541742908671e+01
5.930000000000193339e+00 1.196420875529515371e+01
5.950000000000192912e+00 1.179702170880067591e+01
5.970000000000192486e+00 1.159380477421673739e+01
5.990000000000192060e+00 1.148286968185759349e+01
6.010000000000191633e+00 1.131122763152914601e+01
6.030000000000191207e+00 1.111234915921046351e+01
6.050000000000190781e+00 1.099809383987165745e+01
6.070000000000190354e+00 1.085412239709423865e+01
6.090000000000189928e+00 1.069416991983443310e+01
6.110000000000189502e+00 1.059569389755166746e+01
6.130000000000189075e+00 1.047782852550147759e+01
6.150000000000188649e+00 1.031702949389178059e+01
6.170000000000188223e+00 1.013757833987525636e+01
6.190000000000187796e+00 9.963770624133676534e+00
6.210000000000187370e+00 9.874169432113209410e+00
6.230000000000186944e+00 9.615099246962735435e+00
6.250000000000186517e+00 9.476548497660559178e+00
6.270000000000186091e+00 9.325040120712998259e+00
6.290000000000185665e+00 9.257921401905383263e+00
6.310000000000185238e+00 9.123511016512345861e+00
6.330000000000184812e+00 8.922738083262483855e+00
6.350000000000184386e+00 8.749983101838946453e+00
6.370000000000183960e+00 8.671626314026477544e+00
6.390000000000183533e+00 8.518104013320549228e+00
6.410000000000183107e+00 8.463438109599763948e+00
6.430000000000182681e+00 8.350936593982593692e+00
6.450000000000182254e+00 8.254178069422291486e+00
6.470000000000181828e+00 8.103213734491179210e+00
6.490000000000181402e+00 7.847082985611099737e+00
6.510000000000180975e+00 7.747898018306329071e+00
6.530000000000180549e+00 7.613886186052250871e+00
6.550000000000180123e+00 7.523418272642866000e+00
6.570000000000179696e+00 7.425855297266449107e+00
6.590000000000179270e+00 7.389593492252626739e+00
6.610000000000178844e+00 7.247877120539384599e+00
6.630000000000178417e+00 7.109687924062571440e+00
6.650000000000177991e+00 7.027591643638483099e+00
6.670000000000177565e+00 6.866419132484226751e+00
6.690000000000177138e+00 6.797897091573208428e+00
6.710000000000176712e+00 6.667819743024151258e+00
6.730000000000176286e+00 6.523413219560532994e+00
6.750000000000175859e+00 6.412001846637471303e+00
6.770000000000175433e+00 6.309762202988188129e+00
6.790000000000175007e+00 6.236042322179432773e+00
6.810000000000174580e+00 6.139335622997509567e+00
6.830000000000174154e+00 6.007785901153781971e+00
6.850000000000173728e+00 5.943929362037303932e+00
6.870000000000173301e+00 5.850560070771585686e+00
6.890000000000172875e+00 5.751940832846827334e+00
6.910000000000172449e+00 5.681656020206221847e+00
6.930000000000172022e+00 5.652799019656084667e+00
6.950000000000171596e+00 5.605605788205648921e+00
6.970000000000171170e+00 5.566916420705918078e+00
6.990000000000170743e+00 5.344654687722186992e+00
7.010000000000170317e+00 5.224608334866293724e+00
7.030000000000169891e+00 5.157269368173917456e+00
7.050000000000169464e+00 5.093577118869554887e+00
7.070000000000169038e+00 4.982753526989410098e+00
7.090000000000168612e+00 4.909667366981481429e+00
7.110000000000168185e+00 4.837708230040990820e+00
7.130000000000167759e+00 4.751365067276673848e+00
7.150000000000167333e+00 4.648803259753548467e+00
7.170000000000166906e+00 4.557052345450883557e+00
7.190000000000166480e+00 4.466507213675906307e+00
7.210000000000166054e+00 4.396919394951338766e+00
7.230000000000165628e+00 4.350058110605901085e+00
7.250000000000165201e+00 4.284833180749985537e+00
7.270000000000164775e+00 4.198845384889392740e+00
7.290000000000164349e+00 4.131481940234254857e+00
7.310000000000163922e+00 4.066191985459799874e+00
7.330000000000163496e+00 3.988357793350248315e+00
7.350000000000163070e+00 3.922188922378375686e+00
7.370000000000162643e+00 3.865607790832396695e+00
7.390000000000162217e+00 3.843364360593726659e+00
7.410000000000161791e+00 3.790507591066615500e+00
7.430000000000161364e+00 3.791660375394081850e+00
7.450000000000160938e+00 3.686888030272116090e+00
7.470000000000160512e+00 3.582966705305885569e+00
7.490000000000160085e+00 3.514327439066661896e+00
7.510000000000159659e+00 3.437367774051298674e+00
7.530000000000159233e+00 3.363792290280537944e+00
7.550000000000158806e+00 3.322951368784808235e+00
7.570000000000158380e+00 3.269466148023794094e+00
7.590000000000157954e+00 3.203640264945742278e+00
7.610000000000157527e+00 3.157849673531456958e+00
7.630000000000157101e+00 3.089212757286397437e+00
7.650000000000156675e+00 3.055840104946585090e+00
7.670000000000156248e+00 3.000904050888808072e+00
7.690000000000155822e+00 2.924510148913566976e+00
7.710000000000155396e+00 2.872988385955864477e+00
7.730000000000154969e+00 2.814312927151165322e+00
7.750000000000154543e+00 2.784929628270992996e+00
7.770000000000154117e+00 2.749480318781019061e+00
7.790000000000153690e+00 2.678082667985043130e+00
7.810000000000153264e+00 2.681248755483536250e+00
7.830000000000152838e+00 2.650228440040846678e+00
7.850000000000152411e+00 2.627248183165495465e+00
7.870000000000151985e+00 2.575124883598364001e+00
7.890000000000151559e+00 2.479793098302757404e+00
7.910000000000151132e+00 2.435449525556577122e+00
7.930000000000150706e+00 2.396870672878248065e+00
7.950000000000150280e+00 2.363118894645500401e+00
7.970000000000149853e+00 2.310859250951167621e+00
