# Redshift		Merger Rate Density [Gpc^-3yr^-1]
1.000000000031931770e-02 2.567097084762808095e+02
3.000000000031888964e-02 2.678622855335472082e+02
5.000000000031846331e-02 2.808174877036249768e+02
7.000000000031804392e-02 2.934507736500819988e+02
9.000000000031761760e-02 3.054924938210265282e+02
1.100000000003171913e-01 3.202350280171601753e+02
1.300000000003167511e-01 3.326093855699972437e+02
1.500000000003163247e-01 3.475530579522452967e+02
1.700000000003158984e-01 3.623100445000330296e+02
1.900000000003154721e-01 3.757929365840172409e+02
2.100000000003150458e-01 3.903145614361278035e+02
2.300000000003146194e-01 4.071483557729196718e+02
2.500000000003141931e-01 4.217469608221116459e+02
2.700000000003137668e-01 4.395553084177020082e+02
2.900000000003133405e-01 4.543620397660109802e+02
3.100000000003129141e-01 4.720202260721353582e+02
3.300000000003124878e-01 4.874026132241355640e+02
3.500000000003120615e-01 5.062048878574872788e+02
3.700000000003116352e-01 5.239448459918603476e+02
3.900000000003112088e-01 5.416952208005335478e+02
4.100000000003107825e-01 5.593434206958204413e+02
4.300000000003103562e-01 5.786653585129303110e+02
4.500000000003099299e-01 5.977192157996290689e+02
4.700000000003095035e-01 6.167108043794812602e+02
4.900000000003090772e-01 6.349119723981674497e+02
5.100000000003086509e-01 6.563574431631493553e+02
5.300000000003082246e-01 6.772073417277509861e+02
5.500000000003077982e-01 6.955936872467332250e+02
5.700000000003073719e-01 7.165598868594522628e+02
5.900000000003069456e-01 7.395571911156272336e+02
6.100000000003065193e-01 7.568127190064570868e+02
6.300000000003060929e-01 7.820879804481299971e+02
6.500000000003056666e-01 8.018827158045522765e+02
6.700000000003052403e-01 8.228137486012821000e+02
6.900000000003048140e-01 8.485596307607013387e+02
7.100000000003043876e-01 8.684285417234844999e+02
7.300000000003039613e-01 8.917197670194966577e+02
7.500000000003035350e-01 9.153454216045581688e+02
7.700000000003031086e-01 9.362572819376006237e+02
7.900000000003026823e-01 9.609051795048069380e+02
8.100000000003022560e-01 9.849570324634264580e+02
8.300000000003018297e-01 1.005858387652651686e+03
8.500000000003014033e-01 1.034098034473254074e+03
8.700000000003009770e-01 1.056228938609587885e+03
8.900000000003005507e-01 1.079244718299084070e+03
9.100000000003001244e-01 1.104992973820893440e+03
9.300000000002996980e-01 1.128714017655903262e+03
9.500000000002992717e-01 1.151645711823646025e+03
9.700000000002988454e-01 1.174356050166398745e+03
9.900000000002984191e-01 1.200227832593377343e+03
1.010000000000297993e+00 1.222977398227522599e+03
1.030000000000297566e+00 1.247853033058825304e+03
1.050000000000297140e+00 1.271533682319474792e+03
1.070000000000296714e+00 1.297185192394040314e+03
1.090000000000296287e+00 1.318872828028440154e+03
1.110000000000295861e+00 1.341512230732281978e+03
1.130000000000295435e+00 1.365137872077850034e+03
1.150000000000295008e+00 1.386872530002659687e+03
1.170000000000294582e+00 1.413996862863346223e+03
1.190000000000294156e+00 1.433047985828057335e+03
1.210000000000293729e+00 1.458859549442682010e+03
1.230000000000293303e+00 1.478453586361696352e+03
1.250000000000292877e+00 1.502576887302405567e+03
1.270000000000292451e+00 1.520942898716401942e+03
1.290000000000292024e+00 1.537317059822603369e+03
1.310000000000291598e+00 1.568000468780811616e+03
1.330000000000291172e+00 1.583194940224303991e+03
1.350000000000290745e+00 1.605025128392805527e+03
1.370000000000290319e+00 1.625364385817267021e+03
1.390000000000289893e+00 1.646220336758117583e+03
1.410000000000289466e+00 1.659202479629628669e+03
1.430000000000289040e+00 1.680019976542867198e+03
1.450000000000288614e+00 1.699265695949083238e+03
1.470000000000288187e+00 1.715422965755742098e+03
1.490000000000287761e+00 1.732045377511007928e+03
1.510000000000287335e+00 1.748633748709133670e+03
1.530000000000286908e+00 1.765085945778616178e+03
1.550000000000286482e+00 1.778456012172978490e+03
1.570000000000286056e+00 1.792294292507210457e+03
1.590000000000285629e+00 1.807482602930264648e+03
1.610000000000285203e+00 1.827963167376793763e+03
1.630000000000284777e+00 1.839384725108725434e+03
1.650000000000284350e+00 1.854994003197026132e+03
1.670000000000283924e+00 1.867080283089528848e+03
1.690000000000283498e+00 1.878370683358094084e+03
1.710000000000283071e+00 1.887923741800602102e+03
1.730000000000282645e+00 1.895600314734180529e+03
1.750000000000282219e+00 1.898437820496520771e+03
1.770000000000281792e+00 1.905146438112371698e+03
1.790000000000281366e+00 1.914396530419623332e+03
1.810000000000280940e+00 1.915578779237141816e+03
1.830000000000280513e+00 1.915248077931683838e+03
1.850000000000280087e+00 1.914331152605559510e+03
1.870000000000279661e+00 1.918185380750974673e+03
1.890000000000279234e+00 1.921783897529816386e+03
1.910000000000278808e+00 1.916271167321351868e+03
1.930000000000278382e+00 1.918854057558154182e+03
1.950000000000277955e+00 1.918291041018282385e+03
1.970000000000277529e+00 1.911618725119427609e+03
1.990000000000277103e+00 1.907762149983207109e+03
2.010000000000276899e+00 1.906786393729972588e+03
2.030000000000276472e+00 1.898456132131533195e+03
2.050000000000276046e+00 1.894802797824546360e+03
2.070000000000275620e+00 1.886092766154265746e+03
2.090000000000275193e+00 1.875737843905634236e+03
2.110000000000274767e+00 1.867726542347414352e+03
2.130000000000274341e+00 1.848071593956672132e+03
2.150000000000273914e+00 1.836710407142443046e+03
2.170000000000273488e+00 1.830538412819473024e+03
2.190000000000273062e+00 1.816521777145752822e+03
2.210000000000272635e+00 1.802729155615307945e+03
2.230000000000272209e+00 1.787499965212896541e+03
2.250000000000271783e+00 1.777646510656542205e+03
2.270000000000271356e+00 1.761974040369989552e+03
2.290000000000270930e+00 1.747591729577768774e+03
2.310000000000270504e+00 1.729989478501397343e+03
2.330000000000270077e+00 1.719298330377482216e+03
2.350000000000269651e+00 1.702396017058563757e+03
2.370000000000269225e+00 1.687458013836646387e+03
2.390000000000268798e+00 1.674362844299054132e+03
2.410000000000268372e+00 1.655935897589419710e+03
2.430000000000267946e+00 1.641954155325642205e+03
2.450000000000267519e+00 1.628915567222314849e+03
2.470000000000267093e+00 1.610898223770986078e+03
2.490000000000266667e+00 1.596367841180951700e+03
2.510000000000266240e+00 1.581495164959775366e+03
2.530000000000265814e+00 1.561740468218232309e+03
2.550000000000265388e+00 1.550713344071646361e+03
2.570000000000264961e+00 1.529223257192627443e+03
2.590000000000264535e+00 1.515248660757801190e+03
2.610000000000264109e+00 1.501384218002792750e+03
2.630000000000263682e+00 1.480779443803311324e+03
2.650000000000263256e+00 1.465798346964897064e+03
2.670000000000262830e+00 1.447123524561770864e+03
2.690000000000262403e+00 1.434553984368666761e+03
2.710000000000261977e+00 1.416660726676406284e+03
2.730000000000261551e+00 1.397752997559564619e+03
2.750000000000261124e+00 1.384246744328283512e+03
2.770000000000260698e+00 1.366609149205991343e+03
2.790000000000260272e+00 1.348619409816645202e+03
2.810000000000259845e+00 1.334037569306552768e+03
2.830000000000259419e+00 1.314069809689749036e+03
2.850000000000258993e+00 1.301244629053351900e+03
2.870000000000258567e+00 1.285074583368947970e+03
2.890000000000258140e+00 1.268688730580136507e+03
2.910000000000257714e+00 1.250652760217288460e+03
2.930000000000257288e+00 1.236113040954964617e+03
2.950000000000256861e+00 1.217903684748738897e+03
2.970000000000256435e+00 1.204959769325310845e+03
2.990000000000256009e+00 1.190518827333710306e+03
3.010000000000255582e+00 1.173879720246997977e+03
3.030000000000255156e+00 1.161006482272478479e+03
3.050000000000254730e+00 1.144589412829758658e+03
3.070000000000254303e+00 1.128437200996118008e+03
3.090000000000253877e+00 1.115629439336381211e+03
3.110000000000253451e+00 1.103748717029464160e+03
3.130000000000253024e+00 1.089351088320881900e+03
3.150000000000252598e+00 1.072703672585845879e+03
3.170000000000252172e+00 1.061629794849272685e+03
3.190000000000251745e+00 1.046863006069876974e+03
3.210000000000251319e+00 1.032940137403227709e+03
3.230000000000250893e+00 1.018747266938540747e+03
3.250000000000250466e+00 1.003036156454033403e+03
3.270000000000250040e+00 9.905927095027836913e+02
3.290000000000249614e+00 9.760198457348385546e+02
3.310000000000249187e+00 9.612442325361914754e+02
3.330000000000248761e+00 9.473936597008936360e+02
3.350000000000248335e+00 9.342856838872902472e+02
3.370000000000247908e+00 9.222673728130085919e+02
3.390000000000247482e+00 9.071753638356640295e+02
3.410000000000247056e+00 8.948220264777471584e+02
3.430000000000246629e+00 8.814164895500376815e+02
3.450000000000246203e+00 8.673680979575434549e+02
3.470000000000245777e+00 8.541877973030345856e+02
3.490000000000245350e+00 8.441625912691043823e+02
3.510000000000244924e+00 8.331043986843415041e+02
3.530000000000244498e+00 8.203696492032809147e+02
3.550000000000244071e+00 8.084393216509811282e+02
3.570000000000243645e+00 7.984828470841405306e+02
3.590000000000243219e+00 7.871816960702284405e+02
3.610000000000242792e+00 7.764223332814564174e+02
3.630000000000242366e+00 7.661353359894445703e+02
3.650000000000241940e+00 7.554970690703135006e+02
3.670000000000241513e+00 7.417520630680274962e+02
3.690000000000241087e+00 7.327780549022344303e+02
3.710000000000240661e+00 7.223009463293473118e+02
3.730000000000240234e+00 7.109675747088336948e+02
3.750000000000239808e+00 7.022441186634711130e+02
3.770000000000239382e+00 6.910558572181936370e+02
3.790000000000238956e+00 6.810416106220379788e+02
3.810000000000238529e+00 6.697988107771186606e+02
3.830000000000238103e+00 6.594771881623198624e+02
3.850000000000237677e+00 6.504904855815889277e+02
3.870000000000237250e+00 6.408076230953938648e+02
3.890000000000236824e+00 6.317752693591525031e+02
3.910000000000236398e+00 6.234869790630106081e+02
3.930000000000235971e+00 6.143562060580694606e+02
3.950000000000235545e+00 6.070044460428179036e+02
3.970000000000235119e+00 5.983387619819185375e+02
3.990000000000234692e+00 5.903235523663270214e+02
4.010000000000234266e+00 5.822538800818392701e+02
4.030000000000233840e+00 5.742230391979834394e+02
4.050000000000233413e+00 5.663366943638637849e+02
4.070000000000232987e+00 5.597808488271206215e+02
4.090000000000232561e+00 5.506375864007513883e+02
4.110000000000232134e+00 5.439516561161779009e+02
4.130000000000231708e+00 5.382704168961663527e+02
4.150000000000231282e+00 5.296811012276683641e+02
4.170000000000230855e+00 5.231716377594622145e+02
4.190000000000230429e+00 5.157441736524745011e+02
4.210000000000230003e+00 5.099242528928818388e+02
4.230000000000229576e+00 5.011728610186390256e+02
4.250000000000229150e+00 4.951796422684180357e+02
4.270000000000228724e+00 4.875760629009930653e+02
4.290000000000228297e+00 4.809653791068026294e+02
4.310000000000227871e+00 4.749399233020513407e+02
4.330000000000227445e+00 4.682662058751665768e+02
4.350000000000227018e+00 4.614355213332669337e+02
4.370000000000226592e+00 4.561418179526912695e+02
4.390000000000226166e+00 4.506022927779592919e+02
4.410000000000225739e+00 4.439915543797375221e+02
4.430000000000225313e+00 4.385033534712388814e+02
4.450000000000224887e+00 4.328023038376373393e+02
4.470000000000224460e+00 4.264582688318518535e+02
4.490000000000224034e+00 4.215871931501980043e+02
4.510000000000223608e+00 4.161227072496918140e+02
4.530000000000223181e+00 4.116564059629292842e+02
4.550000000000222755e+00 4.057979121709246897e+02
4.570000000000222329e+00 4.008834585909611405e+02
4.590000000000221902e+00 3.956934411019111621e+02
4.610000000000221476e+00 3.912470716023977388e+02
4.630000000000221050e+00 3.880214611598634633e+02
4.650000000000220624e+00 3.824993615477200137e+02
4.670000000000220197e+00 3.785416268179501458e+02
4.690000000000219771e+00 3.726246186386082400e+02
4.710000000000219345e+00 3.677845785928709574e+02
4.730000000000218918e+00 3.639351295956781200e+02
4.750000000000218492e+00 3.595354308055889305e+02
4.770000000000218066e+00 3.543365111461526453e+02
4.790000000000217639e+00 3.503822145560776562e+02
4.810000000000217213e+00 3.461051308426845026e+02
4.830000000000216787e+00 3.410410943990565897e+02
4.850000000000216360e+00 3.375165464369237611e+02
4.870000000000215934e+00 3.331928454241065083e+02
4.890000000000215508e+00 3.282242730186923723e+02
4.910000000000215081e+00 3.243865067571104532e+02
4.930000000000214655e+00 3.187929419594974547e+02
4.950000000000214229e+00 3.155426020036096588e+02
4.970000000000213802e+00 3.112299697034565042e+02
4.990000000000213376e+00 3.067160941564749805e+02
5.010000000000212950e+00 3.037818083753260225e+02
5.030000000000212523e+00 2.999915983635139582e+02
5.050000000000212097e+00 2.954347973085372701e+02
5.070000000000211671e+00 2.927517909627931090e+02
5.090000000000211244e+00 2.887333738720005272e+02
5.110000000000210818e+00 2.845247999389009124e+02
5.130000000000210392e+00 2.828251790435020894e+02
5.150000000000209965e+00 2.787472621981463021e+02
5.170000000000209539e+00 2.757629261187353222e+02
5.190000000000209113e+00 2.718054788357035250e+02
5.210000000000208686e+00 2.698807194965544909e+02
5.230000000000208260e+00 2.663449742393218571e+02
5.250000000000207834e+00 2.636694919905486358e+02
5.270000000000207407e+00 2.604628857577735062e+02
5.290000000000206981e+00 2.569484580130027780e+02
5.310000000000206555e+00 2.548411107064129055e+02
5.330000000000206128e+00 2.515626182095011245e+02
5.350000000000205702e+00 2.486507258981601467e+02
5.370000000000205276e+00 2.464806032397708577e+02
5.390000000000204849e+00 2.436817912858583668e+02
5.410000000000204423e+00 2.411410866778857383e+02
5.430000000000203997e+00 2.380541238624232392e+02
5.450000000000203570e+00 2.351217809023840175e+02
5.470000000000203144e+00 2.328861453475551286e+02
5.490000000000202718e+00 2.313264528078158264e+02
5.510000000000202292e+00 2.284548524567082950e+02
5.530000000000201865e+00 2.258378080467533380e+02
5.550000000000201439e+00 2.226025758709382671e+02
5.570000000000201013e+00 2.206317861561258269e+02
5.590000000000200586e+00 2.171344164538554651e+02
5.610000000000200160e+00 2.153700911435577154e+02
5.630000000000199734e+00 2.131417727070535761e+02
5.650000000000199307e+00 2.110348113964417109e+02
5.670000000000198881e+00 2.073393157684002119e+02
5.690000000000198455e+00 2.050897159483600660e+02
5.710000000000198028e+00 2.034727198698487030e+02
5.730000000000197602e+00 2.012425644322349001e+02
5.750000000000197176e+00 1.987948279760869639e+02
5.770000000000196749e+00 1.968291654001159543e+02
5.790000000000196323e+00 1.948503329370303447e+02
5.810000000000195897e+00 1.931066753357572452e+02
5.830000000000195470e+00 1.899105226774384221e+02
5.850000000000195044e+00 1.877273532856969780e+02
5.870000000000194618e+00 1.868414603872426767e+02
5.890000000000194191e+00 1.839404620669096744e+02
5.910000000000193765e+00 1.829824136245206034e+02
5.930000000000193339e+00 1.803642513776769647e+02
5.950000000000192912e+00 1.792287106988796950e+02
5.970000000000192486e+00 1.767508627788318734e+02
5.990000000000192060e+00 1.755335065911991137e+02
6.010000000000191633e+00 1.734880821295315059e+02
6.030000000000191207e+00 1.716410101610910033e+02
6.050000000000190781e+00 1.705060566952084287e+02
6.070000000000190354e+00 1.684621654229600836e+02
6.090000000000189928e+00 1.674237837760761352e+02
6.110000000000189502e+00 1.648494231325134649e+02
6.130000000000189075e+00 1.640989255105612585e+02
6.150000000000188649e+00 1.617963262685073857e+02
6.170000000000188223e+00 1.607495730463294592e+02
6.190000000000187796e+00 1.594141169645848777e+02
6.210000000000187370e+00 1.577282629243890142e+02
6.230000000000186944e+00 1.555553361262975613e+02
6.250000000000186517e+00 1.539903160877646258e+02
6.270000000000186091e+00 1.530133663453357826e+02
6.290000000000185665e+00 1.507536871418449493e+02
6.310000000000185238e+00 1.496029935701744478e+02
6.330000000000184812e+00 1.476364293492906654e+02
6.350000000000184386e+00 1.469127738225247128e+02
6.370000000000183960e+00 1.451426848335944157e+02
6.390000000000183533e+00 1.440873476964289921e+02
6.410000000000183107e+00 1.421287509921253900e+02
6.430000000000182681e+00 1.410220487406277812e+02
6.450000000000182254e+00 1.392512311674129819e+02
6.470000000000181828e+00 1.384180149858876234e+02
6.490000000000181402e+00 1.375223772693774151e+02
6.510000000000180975e+00 1.358320892105769531e+02
6.530000000000180549e+00 1.347289341416074535e+02
6.550000000000180123e+00 1.339217255724054212e+02
6.570000000000179696e+00 1.323478891641055100e+02
6.590000000000179270e+00 1.310099910814842588e+02
6.610000000000178844e+00 1.299690255115211244e+02
6.630000000000178417e+00 1.288611634581305054e+02
6.650000000000177991e+00 1.278954481139168280e+02
6.670000000000177565e+00 1.269106809262635238e+02
6.690000000000177138e+00 1.258704714001529652e+02
6.710000000000176712e+00 1.242081946283462059e+02
6.730000000000176286e+00 1.236473794314432979e+02
6.750000000000175859e+00 1.222017585585540047e+02
6.770000000000175433e+00 1.218140066937385626e+02
6.790000000000175007e+00 1.207458908967102786e+02
6.810000000000174580e+00 1.194499981820952428e+02
6.830000000000174154e+00 1.184179862547179169e+02
6.850000000000173728e+00 1.175050318659439483e+02
6.870000000000173301e+00 1.165169780353467957e+02
6.890000000000172875e+00 1.152918567155952161e+02
6.910000000000172449e+00 1.144801653764652514e+02
6.930000000000172022e+00 1.139553339616921335e+02
6.950000000000171596e+00 1.126243388147377829e+02
6.970000000000171170e+00 1.115380243249782524e+02
6.990000000000170743e+00 1.114292551103283131e+02
7.010000000000170317e+00 1.102935487993740651e+02
7.030000000000169891e+00 1.094013282369488422e+02
7.050000000000169464e+00 1.084664752631962017e+02
7.070000000000169038e+00 1.078114695072375611e+02
7.090000000000168612e+00 1.068891026258776122e+02
7.110000000000168185e+00 1.061370668441742566e+02
7.130000000000167759e+00 1.052502370081697336e+02
7.150000000000167333e+00 1.044297053461267382e+02
7.170000000000166906e+00 1.036707351294274844e+02
7.190000000000166480e+00 1.032385085658975612e+02
7.210000000000166054e+00 1.025730927330665310e+02
7.230000000000165628e+00 1.021560285817003404e+02
7.250000000000165201e+00 1.011324281616576428e+02
7.270000000000164775e+00 9.997380457465179404e+01
7.290000000000164349e+00 9.966582749901313321e+01
7.310000000000163922e+00 9.904409302192374298e+01
7.330000000000163496e+00 9.860805097972014721e+01
7.350000000000163070e+00 9.775997347093985468e+01
7.370000000000162643e+00 9.752387754210094784e+01
7.390000000000162217e+00 9.703297761527845466e+01
7.410000000000161791e+00 9.599251178200640311e+01
7.430000000000161364e+00 9.503226486309843324e+01
7.450000000000160938e+00 9.496029810818016870e+01
7.470000000000160512e+00 9.442912035530078185e+01
7.490000000000160085e+00 9.387715534202510526e+01
7.510000000000159659e+00 9.310616602501374928e+01
7.530000000000159233e+00 9.256331957177177117e+01
7.550000000000158806e+00 9.238244733821163379e+01
7.570000000000158380e+00 9.104998262234460071e+01
7.590000000000157954e+00 9.110816448304170478e+01
7.610000000000157527e+00 9.071503778941786322e+01
7.630000000000157101e+00 8.995419765366594333e+01
7.650000000000156675e+00 8.942441937878282943e+01
7.670000000000156248e+00 8.866668092051378380e+01
7.690000000000155822e+00 8.845505358058647971e+01
7.710000000000155396e+00 8.853655572934158613e+01
7.730000000000154969e+00 8.806191238334182003e+01
7.750000000000154543e+00 8.754542221442328298e+01
7.770000000000154117e+00 8.690292425437647239e+01
7.790000000000153690e+00 8.673786974474946021e+01
7.810000000000153264e+00 8.624194003990417912e+01
7.830000000000152838e+00 8.595001387662314585e+01
7.850000000000152411e+00 8.513291527945960979e+01
7.870000000000151985e+00 8.497916682853737314e+01
7.890000000000151559e+00 8.493683099057545860e+01
7.910000000000151132e+00 8.425078119431690027e+01
7.930000000000150706e+00 8.373161720914276884e+01
7.950000000000150280e+00 8.360253650066655950e+01
7.970000000000149853e+00 8.298661361418257343e+01
