# Redshift		Merger Rate Density [Gpc^-3yr^-1]
1.000000000031931770e-02 3.433567730873604518e+01
3.000000000031888964e-02 3.563438855544055883e+01
5.000000000031846331e-02 3.689001501959144491e+01
7.000000000031804392e-02 3.732528409789982504e+01
9.000000000031761760e-02 3.876607906190103847e+01
1.100000000003171913e-01 3.973948030908012186e+01
1.300000000003167511e-01 4.102588721856272969e+01
1.500000000003163247e-01 4.175375813692112104e+01
1.700000000003158984e-01 4.302012838081918744e+01
1.900000000003154721e-01 4.409392679942696702e+01
2.100000000003150458e-01 4.515537618433269529e+01
2.300000000003146194e-01 4.589996626411057434e+01
2.500000000003141931e-01 4.772039566904167884e+01
2.700000000003137668e-01 4.848335409141209595e+01
2.900000000003133405e-01 5.023008779350134745e+01
3.100000000003129141e-01 5.184294529328425227e+01
3.300000000003124878e-01 5.255555235610113840e+01
3.500000000003120615e-01 5.357146337666924296e+01
3.700000000003116352e-01 5.575860729540069372e+01
3.900000000003112088e-01 5.687467629496588728e+01
4.100000000003107825e-01 5.784875530732583826e+01
4.300000000003103562e-01 5.913495852172290057e+01
4.500000000003099299e-01 6.083234449813155464e+01
4.700000000003095035e-01 6.198681545007046623e+01
4.900000000003090772e-01 6.310384883417792423e+01
5.100000000003086509e-01 6.511106843151178225e+01
5.300000000003082246e-01 6.573693158008394732e+01
5.500000000003077982e-01 6.723733695555554846e+01
5.700000000003073719e-01 6.822715643201696878e+01
5.900000000003069456e-01 7.005528177469699358e+01
6.100000000003065193e-01 7.118400140491472428e+01
6.300000000003060929e-01 7.274698681462085403e+01
6.500000000003056666e-01 7.323973614024086487e+01
6.700000000003052403e-01 7.531171210078326794e+01
6.900000000003048140e-01 7.579465790364167788e+01
7.100000000003043876e-01 7.758408816370534566e+01
7.300000000003039613e-01 7.870503412913869568e+01
7.500000000003035350e-01 7.999387290840003573e+01
7.700000000003031086e-01 8.135910633570603068e+01
7.900000000003026823e-01 8.236648469726567612e+01
8.100000000003022560e-01 8.467488009258660497e+01
8.300000000003018297e-01 8.471790487327248798e+01
8.500000000003014033e-01 8.607482012150254036e+01
8.700000000003009770e-01 8.814762304507468116e+01
8.900000000003005507e-01 8.844031051991834147e+01
9.100000000003001244e-01 8.970869191652347752e+01
9.300000000002996980e-01 9.120340685056255836e+01
9.500000000002992717e-01 9.246596908973009477e+01
9.700000000002988454e-01 9.237809444564193484e+01
9.900000000002984191e-01 9.436559691927122628e+01
1.010000000000297993e+00 9.564657718330315106e+01
1.030000000000297566e+00 9.734806661799706262e+01
1.050000000000297140e+00 9.768440211694729669e+01
1.070000000000296714e+00 9.747632535093599415e+01
1.090000000000296287e+00 9.824509767411474570e+01
1.110000000000295861e+00 1.000621074835661517e+02
1.130000000000295435e+00 1.007994764619718495e+02
1.150000000000295008e+00 1.017269715072179110e+02
1.170000000000294582e+00 1.024563980395691800e+02
1.190000000000294156e+00 1.028507330375527857e+02
1.210000000000293729e+00 1.042588869187124914e+02
1.230000000000293303e+00 1.052386665690291636e+02
1.250000000000292877e+00 1.040608455581283209e+02
1.270000000000292451e+00 1.062321185350366051e+02
1.290000000000292024e+00 1.062093322455181266e+02
1.310000000000291598e+00 1.076519800384200209e+02
1.330000000000291172e+00 1.080636369406693262e+02
1.350000000000290745e+00 1.087534179652279960e+02
1.370000000000290319e+00 1.084144412086830158e+02
1.390000000000289893e+00 1.099451965833977027e+02
1.410000000000289466e+00 1.093751329050405587e+02
1.430000000000289040e+00 1.103767948243073533e+02
1.450000000000288614e+00 1.104448834300251860e+02
1.470000000000288187e+00 1.112627905877998415e+02
1.490000000000287761e+00 1.110212895994679485e+02
1.510000000000287335e+00 1.119827650060216087e+02
1.530000000000286908e+00 1.109627118633933804e+02
1.550000000000286482e+00 1.116837493733445399e+02
1.570000000000286056e+00 1.119549345499747091e+02
1.590000000000285629e+00 1.124478111647198091e+02
1.610000000000285203e+00 1.116889023096869380e+02
1.630000000000284777e+00 1.115023331385923484e+02
1.650000000000284350e+00 1.132881471427833731e+02
1.670000000000283924e+00 1.112505307796647855e+02
1.690000000000283498e+00 1.117928394949359614e+02
1.710000000000283071e+00 1.113348735704279164e+02
1.730000000000282645e+00 1.103996172620646519e+02
1.750000000000282219e+00 1.117974177249862606e+02
1.770000000000281792e+00 1.112199429735095890e+02
1.790000000000281366e+00 1.113355638173311348e+02
1.810000000000280940e+00 1.102923682029922219e+02
1.830000000000280513e+00 1.094106797130738187e+02
1.850000000000280087e+00 1.103855630608621397e+02
1.870000000000279661e+00 1.095066989510438731e+02
1.890000000000279234e+00 1.099690687375764071e+02
1.910000000000278808e+00 1.095222971163082235e+02
1.930000000000278382e+00 1.077814924078315357e+02
1.950000000000277955e+00 1.073166838700390429e+02
1.970000000000277529e+00 1.072023287356080772e+02
1.990000000000277103e+00 1.055803871540066297e+02
2.010000000000276899e+00 1.057223923863237331e+02
2.030000000000276472e+00 1.057306153409915623e+02
2.050000000000276046e+00 1.043093305146577308e+02
2.070000000000275620e+00 1.034836635267605658e+02
2.090000000000275193e+00 1.033413458450519187e+02
2.110000000000274767e+00 1.017884580566860677e+02
2.130000000000274341e+00 1.004722750186820548e+02
2.150000000000273914e+00 1.020797102767868552e+02
2.170000000000273488e+00 9.908910614346400791e+01
2.190000000000273062e+00 9.948896500919269670e+01
2.210000000000272635e+00 9.885487097708512749e+01
2.230000000000272209e+00 9.691397290852040669e+01
2.250000000000271783e+00 9.672495095514098296e+01
2.270000000000271356e+00 9.647363809976344839e+01
2.290000000000270930e+00 9.465143144213556070e+01
2.310000000000270504e+00 9.352062821744438281e+01
2.330000000000270077e+00 9.341764732113662717e+01
2.350000000000269651e+00 9.155291892477781346e+01
2.370000000000269225e+00 9.101687808459755047e+01
2.390000000000268798e+00 8.956106128793956600e+01
2.410000000000268372e+00 8.904978192010433702e+01
2.430000000000267946e+00 8.826841862913435932e+01
2.450000000000267519e+00 8.807353950046591251e+01
2.470000000000267093e+00 8.582891503834564162e+01
2.490000000000266667e+00 8.489665129224228224e+01
2.510000000000266240e+00 8.447175707008970846e+01
2.530000000000265814e+00 8.335634869659136825e+01
2.550000000000265388e+00 8.191264109765103285e+01
2.570000000000264961e+00 8.100777610416432140e+01
2.590000000000264535e+00 8.056041139774642090e+01
2.610000000000264109e+00 7.975854099330548763e+01
2.630000000000263682e+00 7.826481094333537669e+01
2.650000000000263256e+00 7.689017859670029509e+01
2.670000000000262830e+00 7.735868397942370223e+01
2.690000000000262403e+00 7.562539332648238144e+01
2.710000000000261977e+00 7.482222607446971097e+01
2.730000000000261551e+00 7.337983738924290833e+01
2.750000000000261124e+00 7.309419078734588027e+01
2.770000000000260698e+00 7.190287599050780898e+01
2.790000000000260272e+00 7.112600232824169666e+01
2.810000000000259845e+00 7.015634755707093007e+01
2.830000000000259419e+00 6.929057426648098783e+01
2.850000000000258993e+00 6.831370454711336038e+01
2.870000000000258567e+00 6.824659942865659445e+01
2.890000000000258140e+00 6.616961435308992634e+01
2.910000000000257714e+00 6.573610106821929833e+01
2.930000000000257288e+00 6.570607657606726093e+01
2.950000000000256861e+00 6.348495256112851592e+01
2.970000000000256435e+00 6.326691410524153980e+01
2.990000000000256009e+00 6.207738287833357305e+01
3.010000000000255582e+00 6.234366226915023645e+01
3.030000000000255156e+00 6.048072005111277605e+01
3.050000000000254730e+00 6.028058928183833132e+01
3.070000000000254303e+00 5.953469555063165330e+01
3.090000000000253877e+00 5.863696056688148417e+01
3.110000000000253451e+00 5.743983768500661569e+01
3.130000000000253024e+00 5.726355391364534597e+01
3.150000000000252598e+00 5.586866324316259380e+01
3.170000000000252172e+00 5.546594163977927394e+01
3.190000000000251745e+00 5.511302717309560961e+01
3.210000000000251319e+00 5.376131151892067805e+01
3.230000000000250893e+00 5.389477698102128755e+01
3.250000000000250466e+00 5.263230666474470354e+01
3.270000000000250040e+00 5.186117314373269238e+01
3.290000000000249614e+00 5.092863460731428660e+01
3.310000000000249187e+00 5.121638999277900695e+01
3.330000000000248761e+00 4.966035092421459041e+01
3.350000000000248335e+00 4.968428930116707676e+01
3.370000000000247908e+00 4.915049186113937196e+01
3.390000000000247482e+00 4.833343829907968114e+01
3.410000000000247056e+00 4.753042703682767467e+01
3.430000000000246629e+00 4.707066462795128814e+01
3.450000000000246203e+00 4.641378644619845062e+01
3.470000000000245777e+00 4.586073901677871589e+01
3.490000000000245350e+00 4.578296740109961860e+01
3.510000000000244924e+00 4.496438832993722912e+01
3.530000000000244498e+00 4.429565727177374868e+01
3.550000000000244071e+00 4.377047658171400002e+01
3.570000000000243645e+00 4.353410579681957415e+01
3.590000000000243219e+00 4.275163707785144140e+01
3.610000000000242792e+00 4.241499833371084804e+01
3.630000000000242366e+00 4.132636711651553441e+01
3.650000000000241940e+00 4.106572827490742128e+01
3.670000000000241513e+00 4.123626013710187266e+01
3.690000000000241087e+00 4.011764252874512948e+01
3.710000000000240661e+00 4.009856505837480967e+01
3.730000000000240234e+00 3.954725219290315863e+01
3.750000000000239808e+00 3.899232531792752354e+01
3.770000000000239382e+00 3.874849635518924629e+01
3.790000000000238956e+00 3.794221879747780690e+01
3.810000000000238529e+00 3.783418986634305980e+01
3.830000000000238103e+00 3.690341948649810888e+01
3.850000000000237677e+00 3.688377860655762674e+01
3.870000000000237250e+00 3.676566662395931218e+01
3.890000000000236824e+00 3.625876820263346190e+01
3.910000000000236398e+00 3.577818106205548787e+01
3.930000000000235971e+00 3.523031766435547496e+01
3.950000000000235545e+00 3.485163968988282335e+01
3.970000000000235119e+00 3.506793760864982801e+01
3.990000000000234692e+00 3.418024927366840870e+01
4.010000000000234266e+00 3.408457434607566228e+01
4.030000000000233840e+00 3.361819701353844891e+01
4.050000000000233413e+00 3.338411880156603928e+01
4.070000000000232987e+00 3.318634218688882953e+01
4.090000000000232561e+00 3.286671720114998152e+01
4.110000000000232134e+00 3.184857157970898101e+01
4.130000000000231708e+00 3.215150189195089325e+01
4.150000000000231282e+00 3.166003809520160672e+01
4.170000000000230855e+00 3.150347995775235432e+01
4.190000000000230429e+00 3.143435803342843826e+01
4.210000000000230003e+00 3.118104367799439203e+01
4.230000000000229576e+00 3.031092384751222113e+01
4.250000000000229150e+00 3.073725718673159335e+01
4.270000000000228724e+00 3.005381107193066015e+01
4.290000000000228297e+00 3.004430015441406354e+01
4.310000000000227871e+00 2.934637288268013933e+01
4.330000000000227445e+00 2.973946007186352603e+01
4.350000000000227018e+00 2.896497662337173651e+01
4.370000000000226592e+00 2.862127335872626688e+01
4.390000000000226166e+00 2.891884662836623932e+01
4.410000000000225739e+00 2.863980433254960900e+01
4.430000000000225313e+00 2.861823126707639631e+01
4.450000000000224887e+00 2.820232570069444833e+01
4.470000000000224460e+00 2.768557767932248481e+01
4.490000000000224034e+00 2.799813998997215236e+01
4.510000000000223608e+00 2.762233466967294504e+01
4.530000000000223181e+00 2.708029033613081182e+01
4.550000000000222755e+00 2.707283510094552881e+01
4.570000000000222329e+00 2.700877790207032092e+01
4.590000000000221902e+00 2.693838365641936505e+01
4.610000000000221476e+00 2.650823398409755427e+01
4.630000000000221050e+00 2.661701302135205793e+01
4.650000000000220624e+00 2.597044628922726872e+01
4.670000000000220197e+00 2.603711353619438285e+01
4.690000000000219771e+00 2.588216085141585765e+01
4.710000000000219345e+00 2.583368799820918937e+01
4.730000000000218918e+00 2.544733430937824536e+01
4.750000000000218492e+00 2.555953554271711425e+01
4.770000000000218066e+00 2.523249191570550209e+01
4.790000000000217639e+00 2.491037994811426515e+01
4.810000000000217213e+00 2.509043952830139546e+01
4.830000000000216787e+00 2.483084587341728522e+01
4.850000000000216360e+00 2.479429535833903486e+01
4.870000000000215934e+00 2.454444228308463849e+01
4.890000000000215508e+00 2.434549695554906279e+01
4.910000000000215081e+00 2.422856062495955598e+01
4.930000000000214655e+00 2.419120290657303585e+01
4.950000000000214229e+00 2.422369598432957716e+01
4.970000000000213802e+00 2.382298648453006606e+01
4.990000000000213376e+00 2.379478083569243196e+01
5.010000000000212950e+00 2.367355912746753432e+01
5.030000000000212523e+00 2.396928517016760551e+01
5.050000000000212097e+00 2.351044667698610979e+01
5.070000000000211671e+00 2.335503481850380325e+01
5.090000000000211244e+00 2.324761864221902385e+01
5.110000000000210818e+00 2.314584835229023341e+01
5.130000000000210392e+00 2.318526846332040492e+01
5.150000000000209965e+00 2.296891671285030156e+01
5.170000000000209539e+00 2.275846879107028897e+01
5.190000000000209113e+00 2.299882455091535505e+01
5.210000000000208686e+00 2.271470706780805315e+01
5.230000000000208260e+00 2.261183781861002018e+01
5.250000000000207834e+00 2.237365315864992610e+01
5.270000000000207407e+00 2.255244574995009899e+01
5.290000000000206981e+00 2.246125245425064421e+01
5.310000000000206555e+00 2.237626739401298437e+01
5.330000000000206128e+00 2.250878898630467972e+01
5.350000000000205702e+00 2.224128386014286818e+01
5.370000000000205276e+00 2.213653183071791730e+01
5.390000000000204849e+00 2.177413280093995951e+01
5.410000000000204423e+00 2.174046946218342313e+01
5.430000000000203997e+00 2.203126804483001067e+01
5.450000000000203570e+00 2.208689283192907737e+01
5.470000000000203144e+00 2.177369963363124938e+01
5.490000000000202718e+00 2.161092865943694719e+01
5.510000000000202292e+00 2.173570685919248291e+01
5.530000000000201865e+00 2.151738470946272486e+01
5.550000000000201439e+00 2.159267188794660441e+01
5.570000000000201013e+00 2.169909281059595330e+01
5.590000000000200586e+00 2.151888089874405807e+01
5.610000000000200160e+00 2.115407273366052010e+01
5.630000000000199734e+00 2.105240423894174029e+01
5.650000000000199307e+00 2.150365946606180501e+01
5.670000000000198881e+00 2.143215751187963392e+01
5.690000000000198455e+00 2.101608773696709775e+01
5.710000000000198028e+00 2.127818676899448747e+01
5.730000000000197602e+00 2.110199293280794208e+01
5.750000000000197176e+00 2.101117438126353321e+01
5.770000000000196749e+00 2.081066610329517630e+01
5.790000000000196323e+00 2.105146102906289229e+01
5.810000000000195897e+00 2.103263974610860032e+01
5.830000000000195470e+00 2.081619197441161262e+01
5.850000000000195044e+00 2.091437308973253195e+01
5.870000000000194618e+00 2.080061288509526918e+01
5.890000000000194191e+00 2.079083113340667310e+01
5.910000000000193765e+00 2.098123385847671685e+01
5.930000000000193339e+00 2.067210449457309096e+01
5.950000000000192912e+00 2.087363605635569286e+01
5.970000000000192486e+00 2.069230793045512229e+01
5.990000000000192060e+00 2.073781097735972168e+01
6.010000000000191633e+00 2.074544039038644172e+01
6.030000000000191207e+00 2.082943914175022471e+01
6.050000000000190781e+00 2.062486009120106800e+01
6.070000000000190354e+00 2.050665640709654980e+01
6.090000000000189928e+00 2.063297961610668096e+01
6.110000000000189502e+00 2.074491546511126217e+01
6.130000000000189075e+00 2.063474125739041654e+01
6.150000000000188649e+00 2.078035830599108635e+01
6.170000000000188223e+00 2.063945312062590531e+01
6.190000000000187796e+00 2.063202494505184958e+01
6.210000000000187370e+00 2.049208529326676143e+01
6.230000000000186944e+00 2.073897901116286135e+01
6.250000000000186517e+00 2.077478760108301614e+01
6.270000000000186091e+00 2.070779047522306016e+01
6.290000000000185665e+00 2.063982290487552973e+01
6.310000000000185238e+00 2.062397125381548335e+01
6.330000000000184812e+00 2.055604657898638976e+01
6.350000000000184386e+00 2.070608905818036760e+01
6.370000000000183960e+00 2.076544980257967765e+01
6.390000000000183533e+00 2.054948080487647033e+01
6.410000000000183107e+00 2.063824240492112949e+01
6.430000000000182681e+00 2.095346220692583472e+01
6.450000000000182254e+00 2.072457660479174990e+01
6.470000000000181828e+00 2.079419668575081204e+01
6.490000000000181402e+00 2.079669742871491778e+01
6.510000000000180975e+00 2.071371107323097860e+01
6.530000000000180549e+00 2.089957492403364014e+01
6.550000000000180123e+00 2.080738603052750690e+01
6.570000000000179696e+00 2.084750638495535924e+01
6.590000000000179270e+00 2.084956928295810386e+01
6.610000000000178844e+00 2.081696604993029709e+01
6.630000000000178417e+00 2.092113205269169285e+01
6.650000000000177991e+00 2.081993670059893731e+01
6.670000000000177565e+00 2.095099186047937678e+01
6.690000000000177138e+00 2.099818003361156116e+01
6.710000000000176712e+00 2.100718884134387210e+01
6.730000000000176286e+00 2.098400902283506397e+01
6.750000000000175859e+00 2.126689605446741993e+01
6.770000000000175433e+00 2.123343921409843560e+01
6.790000000000175007e+00 2.104576924469809640e+01
6.810000000000174580e+00 2.119683724247717294e+01
6.830000000000174154e+00 2.132632244846167424e+01
6.850000000000173728e+00 2.123749792776144218e+01
6.870000000000173301e+00 2.130586872137508081e+01
6.890000000000172875e+00 2.146815491752879623e+01
6.910000000000172449e+00 2.140310962301008146e+01
6.930000000000172022e+00 2.148770720888389718e+01
6.950000000000171596e+00 2.147399234001862922e+01
6.970000000000171170e+00 2.179209437495804380e+01
6.990000000000170743e+00 2.159416993083853953e+01
7.010000000000170317e+00 2.162185803066960332e+01
7.030000000000169891e+00 2.167748143073073663e+01
7.050000000000169464e+00 2.167435136062749024e+01
7.070000000000169038e+00 2.184544708802743784e+01
7.090000000000168612e+00 2.185819854096505921e+01
7.110000000000168185e+00 2.175408567589932929e+01
7.130000000000167759e+00 2.205725842319612795e+01
7.150000000000167333e+00 2.197101722138691926e+01
7.170000000000166906e+00 2.206402337727756446e+01
7.190000000000166480e+00 2.213322979393882051e+01
7.210000000000166054e+00 2.218501180521029426e+01
7.230000000000165628e+00 2.214112347542270598e+01
7.250000000000165201e+00 2.229652800104072341e+01
7.270000000000164775e+00 2.240241662572759651e+01
7.290000000000164349e+00 2.241088272612439170e+01
7.310000000000163922e+00 2.245057971154805543e+01
7.330000000000163496e+00 2.260649013748747294e+01
7.350000000000163070e+00 2.239976182348392797e+01
7.370000000000162643e+00 2.281620584123298201e+01
7.390000000000162217e+00 2.285046204653571422e+01
7.410000000000161791e+00 2.280560642608991628e+01
7.430000000000161364e+00 2.296644838391754107e+01
7.450000000000160938e+00 2.304165680686506334e+01
7.470000000000160512e+00 2.296331154026657018e+01
7.490000000000160085e+00 2.318978750682928691e+01
7.510000000000159659e+00 2.312165547520871556e+01
7.530000000000159233e+00 2.329349359170775813e+01
7.550000000000158806e+00 2.334279330409723840e+01
7.570000000000158380e+00 2.333422114294411642e+01
7.590000000000157954e+00 2.357332336987212784e+01
7.610000000000157527e+00 2.349846905744318803e+01
7.630000000000157101e+00 2.363320227393878525e+01
7.650000000000156675e+00 2.372041591371312919e+01
7.670000000000156248e+00 2.382150092450413581e+01
7.690000000000155822e+00 2.383722455495814785e+01
7.710000000000155396e+00 2.404602895094611981e+01
7.730000000000154969e+00 2.409162351943343694e+01
7.750000000000154543e+00 2.402560087203970696e+01
7.770000000000154117e+00 2.424954957241471831e+01
7.790000000000153690e+00 2.437790124448693518e+01
7.810000000000153264e+00 2.441516919311100153e+01
7.830000000000152838e+00 2.451772947669608982e+01
7.850000000000152411e+00 2.458174842168555685e+01
7.870000000000151985e+00 2.466252526137968459e+01
7.890000000000151559e+00 2.488162073445345968e+01
7.910000000000151132e+00 2.485870534719248326e+01
7.930000000000150706e+00 2.501900163700076263e+01
7.950000000000150280e+00 2.497206878345659220e+01
7.970000000000149853e+00 2.522286228355613957e+01
