# Redshift		Merger Rate Density [Gpc^-3yr^-1]
1.000000000031931770e-02 1.147256865474297882e+02
3.000000000031888964e-02 1.201336649973953286e+02
5.000000000031846331e-02 1.262338160869028627e+02
7.000000000031804392e-02 1.324108039383297069e+02
9.000000000031761760e-02 1.387372468479561292e+02
1.100000000003171913e-01 1.454574901822690549e+02
1.300000000003167511e-01 1.521357725866664055e+02
1.500000000003163247e-01 1.590112828622202983e+02
1.700000000003158984e-01 1.657894483724574570e+02
1.900000000003154721e-01 1.727522635750179631e+02
2.100000000003150458e-01 1.800981912839174583e+02
2.300000000003146194e-01 1.876132632925143753e+02
2.500000000003141931e-01 1.948495103262703765e+02
2.700000000003137668e-01 2.032328067507024514e+02
2.900000000003133405e-01 2.110467482433198825e+02
3.100000000003129141e-01 2.192091235756038827e+02
3.300000000003124878e-01 2.268734709716964630e+02
3.500000000003120615e-01 2.359798612741056445e+02
3.700000000003116352e-01 2.441319902878982191e+02
3.900000000003112088e-01 2.525286412659921496e+02
4.100000000003107825e-01 2.620642150237690089e+02
4.300000000003103562e-01 2.704676991740813605e+02
4.500000000003099299e-01 2.793066095189620910e+02
4.700000000003095035e-01 2.884601471238796648e+02
4.900000000003090772e-01 2.978605695682630312e+02
5.100000000003086509e-01 3.080896190219486357e+02
5.300000000003082246e-01 3.172405996876049130e+02
5.500000000003077982e-01 3.278676842335292463e+02
5.700000000003073719e-01 3.372237479708745695e+02
5.900000000003069456e-01 3.472185649924064705e+02
6.100000000003065193e-01 3.581580404458252929e+02
6.300000000003060929e-01 3.677640492348672865e+02
6.500000000003056666e-01 3.792200839697862307e+02
6.700000000003052403e-01 3.897873520415010375e+02
6.900000000003048140e-01 3.996222356725519376e+02
7.100000000003043876e-01 4.104381474842439843e+02
7.300000000003039613e-01 4.223890130665429865e+02
7.500000000003035350e-01 4.330420429328757450e+02
7.700000000003031086e-01 4.435422919187181492e+02
7.900000000003026823e-01 4.556721129196967013e+02
8.100000000003022560e-01 4.666388703296537415e+02
8.300000000003018297e-01 4.777142316970914635e+02
8.500000000003014033e-01 4.907684801258319567e+02
8.700000000003009770e-01 5.008645709268947712e+02
8.900000000003005507e-01 5.131970580591824955e+02
9.100000000003001244e-01 5.256105843371747142e+02
9.300000000002996980e-01 5.369851840461691381e+02
9.500000000002992717e-01 5.473838604882354275e+02
9.700000000002988454e-01 5.611560039620184170e+02
9.900000000002984191e-01 5.719773462747955364e+02
1.010000000000297993e+00 5.833490250915319848e+02
1.030000000000297566e+00 5.948307093103661600e+02
1.050000000000297140e+00 6.070698619831124461e+02
1.070000000000296714e+00 6.190415233283257521e+02
1.090000000000296287e+00 6.306938574925676448e+02
1.110000000000295861e+00 6.412645461149985522e+02
1.130000000000295435e+00 6.532955033174665687e+02
1.150000000000295008e+00 6.639112083507410489e+02
1.170000000000294582e+00 6.755036874194839811e+02
1.190000000000294156e+00 6.878584168212813665e+02
1.210000000000293729e+00 6.965783334788389993e+02
1.230000000000293303e+00 7.074167757585723848e+02
1.250000000000292877e+00 7.193338914611347263e+02
1.270000000000292451e+00 7.291045992918185448e+02
1.290000000000292024e+00 7.393386354737415331e+02
1.310000000000291598e+00 7.504373452878627404e+02
1.330000000000291172e+00 7.597999694891547051e+02
1.350000000000290745e+00 7.678365322923518761e+02
1.370000000000290319e+00 7.776023783200542994e+02
1.390000000000289893e+00 7.866178262149348939e+02
1.410000000000289466e+00 7.948922688074679854e+02
1.430000000000289040e+00 8.040736877347534346e+02
1.450000000000288614e+00 8.117804059834983263e+02
1.470000000000288187e+00 8.201475685203166677e+02
1.490000000000287761e+00 8.289079504231722240e+02
1.510000000000287335e+00 8.365508765535107614e+02
1.530000000000286908e+00 8.425533119472758017e+02
1.550000000000286482e+00 8.512796130102835832e+02
1.570000000000286056e+00 8.599326505824899414e+02
1.590000000000285629e+00 8.654119060016281537e+02
1.610000000000285203e+00 8.729375486991380058e+02
1.630000000000284777e+00 8.805724234617953243e+02
1.650000000000284350e+00 8.883579818518225011e+02
1.670000000000283924e+00 8.887800591892568036e+02
1.690000000000283498e+00 9.046927112683614496e+02
1.710000000000283071e+00 9.075605873606945124e+02
1.730000000000282645e+00 9.175649110580575325e+02
1.750000000000282219e+00 9.116386420430986846e+02
1.770000000000281792e+00 9.024706582395097030e+02
1.790000000000281366e+00 9.007551900189675962e+02
1.810000000000280940e+00 8.982041527772074687e+02
1.830000000000280513e+00 8.963083300951578849e+02
1.850000000000280087e+00 8.956134058106713383e+02
1.870000000000279661e+00 8.948832236904188449e+02
1.890000000000279234e+00 8.957332663157293382e+02
1.910000000000278808e+00 8.917967250386490150e+02
1.930000000000278382e+00 8.925146221874138064e+02
1.950000000000277955e+00 9.002282155546067770e+02
1.970000000000277529e+00 8.977337778007772613e+02
1.990000000000277103e+00 8.959240481830888712e+02
2.010000000000276899e+00 8.926364940674343416e+02
2.030000000000276472e+00 8.843758248010084344e+02
2.050000000000276046e+00 8.830087868465035399e+02
2.070000000000275620e+00 8.752381238139125799e+02
2.090000000000275193e+00 8.725512222220077092e+02
2.110000000000274767e+00 8.679378629357230466e+02
2.130000000000274341e+00 8.666178015942306274e+02
2.150000000000273914e+00 8.617348457147708132e+02
2.170000000000273488e+00 8.524682712499931085e+02
2.190000000000273062e+00 8.455351032117706609e+02
2.210000000000272635e+00 8.380829934104344829e+02
2.230000000000272209e+00 8.269906829514119408e+02
2.250000000000271783e+00 8.161215039219757728e+02
2.270000000000271356e+00 8.011245558142816208e+02
2.290000000000270930e+00 7.920402067680486198e+02
2.310000000000270504e+00 7.857907161463530201e+02
2.330000000000270077e+00 7.764749751107859765e+02
2.350000000000269651e+00 7.688650365953626533e+02
2.370000000000269225e+00 7.589112128929164101e+02
2.390000000000268798e+00 7.517836977941072973e+02
2.410000000000268372e+00 7.431834088575200212e+02
2.430000000000267946e+00 7.324326453486568198e+02
2.450000000000267519e+00 7.215764015683178059e+02
2.470000000000267093e+00 7.114309421462056662e+02
2.490000000000266667e+00 7.035895228613979953e+02
2.510000000000266240e+00 6.945432000446260190e+02
2.530000000000265814e+00 6.841987647954758813e+02
2.550000000000265388e+00 6.761000145119768376e+02
2.570000000000264961e+00 6.667591318760771628e+02
2.590000000000264535e+00 6.591176491569622158e+02
2.610000000000264109e+00 6.490073264183214405e+02
2.630000000000263682e+00 6.418061857053434096e+02
2.650000000000263256e+00 6.326564641524322496e+02
2.670000000000262830e+00 6.233672758841239556e+02
2.690000000000262403e+00 6.146957380319746562e+02
2.710000000000261977e+00 6.066047367188421049e+02
2.730000000000261551e+00 5.980273511739463856e+02
2.750000000000261124e+00 5.902273296824794215e+02
2.770000000000260698e+00 5.811377785879217299e+02
2.790000000000260272e+00 5.719501203565583864e+02
2.810000000000259845e+00 5.632874076861936601e+02
2.830000000000259419e+00 5.565839492083973710e+02
2.850000000000258993e+00 5.484720614038337771e+02
2.870000000000258567e+00 5.402637522755528607e+02
2.890000000000258140e+00 5.326820820241060801e+02
2.910000000000257714e+00 5.248564023364834839e+02
2.930000000000257288e+00 5.178410290767913011e+02
2.950000000000256861e+00 5.104682845810774552e+02
2.970000000000256435e+00 5.027749653571896715e+02
2.990000000000256009e+00 4.940180324075515159e+02
3.010000000000255582e+00 4.865978006755474894e+02
3.030000000000255156e+00 4.804960008443519541e+02
3.050000000000254730e+00 4.717314641958078596e+02
3.070000000000254303e+00 4.663520429626656210e+02
3.090000000000253877e+00 4.598923828942510568e+02
3.110000000000253451e+00 4.528098368334557335e+02
3.130000000000253024e+00 4.490292735924696785e+02
3.150000000000252598e+00 4.396093018556018706e+02
3.170000000000252172e+00 4.368864583862545601e+02
3.190000000000251745e+00 4.292623383215504873e+02
3.210000000000251319e+00 4.241532624702267071e+02
3.230000000000250893e+00 4.182598560309774030e+02
3.250000000000250466e+00 4.128888468959888201e+02
3.270000000000250040e+00 4.080088162465233950e+02
3.290000000000249614e+00 4.014185489782694845e+02
3.310000000000249187e+00 3.920945755119826686e+02
3.330000000000248761e+00 3.841783626289765721e+02
3.350000000000248335e+00 3.751896735320361813e+02
3.370000000000247908e+00 3.697280256250764410e+02
3.390000000000247482e+00 3.628748804671413382e+02
3.410000000000247056e+00 3.575062231427707502e+02
3.430000000000246629e+00 3.509990991082747200e+02
3.450000000000246203e+00 3.462459079221483762e+02
3.470000000000245777e+00 3.411336791985995092e+02
3.490000000000245350e+00 3.365679899969581470e+02
3.510000000000244924e+00 3.314451238832634772e+02
3.530000000000244498e+00 3.264183680471909952e+02
3.550000000000244071e+00 3.230807662825286002e+02
3.570000000000243645e+00 3.202926371764345959e+02
3.590000000000243219e+00 3.171982639649860971e+02
3.610000000000242792e+00 3.134629787444283124e+02
3.630000000000242366e+00 3.094033926086394786e+02
3.650000000000241940e+00 3.034802592303432789e+02
3.670000000000241513e+00 2.975532092770667418e+02
3.690000000000241087e+00 2.920186984917651785e+02
3.710000000000240661e+00 2.872464540707956075e+02
3.730000000000240234e+00 2.827853410414051609e+02
3.750000000000239808e+00 2.788982214710523522e+02
3.770000000000239382e+00 2.744993148991194403e+02
3.790000000000238956e+00 2.718341214465762619e+02
3.810000000000238529e+00 2.678959366552878691e+02
3.830000000000238103e+00 2.645874525146084011e+02
3.850000000000237677e+00 2.630259759613406914e+02
3.870000000000237250e+00 2.572551106775916310e+02
3.890000000000236824e+00 2.539587082079649747e+02
3.910000000000236398e+00 2.490705038289955553e+02
3.930000000000235971e+00 2.462169839428220541e+02
3.950000000000235545e+00 2.427899763577506462e+02
3.970000000000235119e+00 2.398910465187694001e+02
3.990000000000234692e+00 2.358921829337566578e+02
4.010000000000234266e+00 2.321189927880348876e+02
4.030000000000233840e+00 2.282900920445949282e+02
4.050000000000233413e+00 2.257580700056914793e+02
4.070000000000232987e+00 2.229377816878295278e+02
4.090000000000232561e+00 2.192409288602154049e+02
4.110000000000232134e+00 2.175229114733809013e+02
4.130000000000231708e+00 2.144459287973480173e+02
4.150000000000231282e+00 2.125216965399866922e+02
4.170000000000230855e+00 2.097889307638045011e+02
4.190000000000230429e+00 2.070338355783392501e+02
4.210000000000230003e+00 2.049297855299783748e+02
4.230000000000229576e+00 2.026071665573316807e+02
4.250000000000229150e+00 1.984954064304124302e+02
4.270000000000228724e+00 1.949993172210732837e+02
4.290000000000228297e+00 1.922809869011603325e+02
4.310000000000227871e+00 1.884241860573444285e+02
4.330000000000227445e+00 1.857893182677290156e+02
4.350000000000227018e+00 1.818773214258604582e+02
4.370000000000226592e+00 1.805032649624034491e+02
4.390000000000226166e+00 1.782662036615290901e+02
4.410000000000225739e+00 1.755393156325475843e+02
4.430000000000225313e+00 1.732071726910136817e+02
4.450000000000224887e+00 1.710708502718456998e+02
4.470000000000224460e+00 1.696201368497501960e+02
4.490000000000224034e+00 1.674665178455009027e+02
4.510000000000223608e+00 1.661564382784523843e+02
4.530000000000223181e+00 1.642670654803723664e+02
4.550000000000222755e+00 1.616700570452723014e+02
4.570000000000222329e+00 1.587576210302827633e+02
4.590000000000221902e+00 1.577278168137822831e+02
4.610000000000221476e+00 1.557829100959982327e+02
4.630000000000221050e+00 1.550838548097599983e+02
4.650000000000220624e+00 1.523924058884058752e+02
4.670000000000220197e+00 1.509169558546719259e+02
4.690000000000219771e+00 1.479094187636359266e+02
4.710000000000219345e+00 1.455477426776917582e+02
4.730000000000218918e+00 1.435778677720112171e+02
4.750000000000218492e+00 1.411307376989122133e+02
4.770000000000218066e+00 1.403020123044663023e+02
4.790000000000217639e+00 1.379872551011548865e+02
4.810000000000217213e+00 1.362181063856200467e+02
4.830000000000216787e+00 1.347064493824906322e+02
4.850000000000216360e+00 1.336355589810938227e+02
4.870000000000215934e+00 1.322329229447092871e+02
4.890000000000215508e+00 1.302632017681964669e+02
4.910000000000215081e+00 1.297443257503700522e+02
4.930000000000214655e+00 1.279835878635760054e+02
4.950000000000214229e+00 1.262921632289925356e+02
4.970000000000213802e+00 1.250314886893892066e+02
4.990000000000213376e+00 1.235676917165099837e+02
5.010000000000212950e+00 1.211926460969929735e+02
5.030000000000212523e+00 1.190532326005765213e+02
5.050000000000212097e+00 1.177335142738681384e+02
5.070000000000211671e+00 1.159163061074670651e+02
5.090000000000211244e+00 1.143302629595791444e+02
5.110000000000210818e+00 1.125831180485271545e+02
5.130000000000210392e+00 1.105983641770170607e+02
5.150000000000209965e+00 1.087328854321474836e+02
5.170000000000209539e+00 1.073819504320307345e+02
5.190000000000209113e+00 1.058561226378413807e+02
5.210000000000208686e+00 1.043210531816583853e+02
5.230000000000208260e+00 1.033686275732938782e+02
5.250000000000207834e+00 1.023235044620620471e+02
5.270000000000207407e+00 1.005706459037290870e+02
5.290000000000206981e+00 1.000668196680592956e+02
5.310000000000206555e+00 9.886133395911981836e+01
5.330000000000206128e+00 9.746078754427962565e+01
5.350000000000205702e+00 9.590580051669773809e+01
5.370000000000205276e+00 9.499317943891466598e+01
5.390000000000204849e+00 9.470778999902638873e+01
5.410000000000204423e+00 9.308932195185316516e+01
5.430000000000203997e+00 9.240631627392897940e+01
5.450000000000203570e+00 9.132854483721362726e+01
5.470000000000203144e+00 9.088104495827199969e+01
5.490000000000202718e+00 8.970382758307057713e+01
5.510000000000202292e+00 8.795343417927351481e+01
5.530000000000201865e+00 8.752656093167416884e+01
5.550000000000201439e+00 8.619885039068026344e+01
5.570000000000201013e+00 8.537594081336212071e+01
5.590000000000200586e+00 8.400003013606779234e+01
5.610000000000200160e+00 8.378561812119038166e+01
5.630000000000199734e+00 8.316512215200124558e+01
5.650000000000199307e+00 8.107997063481147393e+01
5.670000000000198881e+00 7.936567385894294091e+01
5.690000000000198455e+00 7.899691511314108538e+01
5.710000000000198028e+00 7.752975235366956497e+01
5.730000000000197602e+00 7.670029845195419682e+01
5.750000000000197176e+00 7.556803287373566036e+01
5.770000000000196749e+00 7.470849695064366358e+01
5.790000000000196323e+00 7.348538332968900022e+01
5.810000000000195897e+00 7.254326801824156234e+01
5.830000000000195470e+00 7.230315940451741596e+01
5.850000000000195044e+00 7.126838044378290249e+01
5.870000000000194618e+00 6.994479943913198383e+01
5.890000000000194191e+00 6.939387147839443060e+01
5.910000000000193765e+00 6.890206895057478675e+01
5.930000000000193339e+00 6.810034952307796630e+01
5.950000000000192912e+00 6.764647555282608948e+01
5.970000000000192486e+00 6.701869103664940042e+01
5.990000000000192060e+00 6.616057506621520190e+01
6.010000000000191633e+00 6.557456953469073824e+01
6.030000000000191207e+00 6.451854139751978323e+01
6.050000000000190781e+00 6.373381784219214552e+01
6.070000000000190354e+00 6.356696946222275102e+01
6.090000000000189928e+00 6.289122767339228659e+01
6.110000000000189502e+00 6.224115361536393465e+01
6.130000000000189075e+00 6.097493631205398401e+01
6.150000000000188649e+00 6.111881266890323872e+01
6.170000000000188223e+00 5.967177720458486334e+01
6.190000000000187796e+00 5.939807281834592345e+01
6.210000000000187370e+00 5.782465403767444911e+01
6.230000000000186944e+00 5.731678099130976989e+01
6.250000000000186517e+00 5.602692159590460363e+01
6.270000000000186091e+00 5.578907082170142928e+01
6.290000000000185665e+00 5.527678692262165328e+01
6.310000000000185238e+00 5.403440226466999974e+01
6.330000000000184812e+00 5.368263735526492297e+01
6.350000000000184386e+00 5.276675351693843652e+01
6.370000000000183960e+00 5.265345065512067180e+01
6.390000000000183533e+00 5.209033538262402629e+01
6.410000000000183107e+00 5.170902059783077220e+01
6.430000000000182681e+00 5.098681609750887134e+01
6.450000000000182254e+00 5.027017507017852438e+01
6.470000000000181828e+00 4.987275799612746141e+01
6.490000000000181402e+00 4.971632483796896196e+01
6.510000000000180975e+00 4.907704371106158447e+01
6.530000000000180549e+00 4.808609020517892674e+01
6.550000000000180123e+00 4.789473225736981021e+01
6.570000000000179696e+00 4.761440470578305906e+01
6.590000000000179270e+00 4.639172700778035363e+01
6.610000000000178844e+00 4.605237384420436086e+01
6.630000000000178417e+00 4.574247134306074969e+01
6.650000000000177991e+00 4.529404231459643881e+01
6.670000000000177565e+00 4.530197157197280688e+01
6.690000000000177138e+00 4.443424504365812311e+01
6.710000000000176712e+00 4.387611642566491099e+01
6.730000000000176286e+00 4.300805495210597940e+01
6.750000000000175859e+00 4.237673803321420962e+01
6.770000000000175433e+00 4.176959172740515669e+01
6.790000000000175007e+00 4.177871127943404161e+01
6.810000000000174580e+00 4.065644517950769199e+01
6.830000000000174154e+00 4.010887004043186721e+01
6.850000000000173728e+00 3.995727094757692299e+01
6.870000000000173301e+00 3.952827909226611069e+01
6.890000000000172875e+00 3.939470976133900848e+01
6.910000000000172449e+00 3.862480922299084796e+01
6.930000000000172022e+00 3.854674448286247923e+01
6.950000000000171596e+00 3.776334947520221164e+01
6.970000000000171170e+00 3.755395972796932824e+01
6.990000000000170743e+00 3.743223369420385183e+01
7.010000000000170317e+00 3.736585026588863201e+01
7.030000000000169891e+00 3.651950334461308501e+01
7.050000000000169464e+00 3.606823319626524693e+01
7.070000000000169038e+00 3.551917913519442749e+01
7.090000000000168612e+00 3.525171257669097713e+01
7.110000000000168185e+00 3.516586722100478113e+01
7.130000000000167759e+00 3.461401913148786491e+01
7.150000000000167333e+00 3.456215453680970029e+01
7.170000000000166906e+00 3.399668266689111107e+01
7.190000000000166480e+00 3.309980452997599087e+01
7.210000000000166054e+00 3.325616920056250336e+01
7.230000000000165628e+00 3.312464122990916593e+01
7.250000000000165201e+00 3.245154793702639751e+01
7.270000000000164775e+00 3.217334788573611348e+01
7.290000000000164349e+00 3.156463582499030807e+01
7.310000000000163922e+00 3.139238385195309178e+01
7.330000000000163496e+00 3.156269695686741628e+01
7.350000000000163070e+00 3.090984551333907504e+01
7.370000000000162643e+00 3.060108707029493402e+01
7.390000000000162217e+00 3.057545496753130010e+01
7.410000000000161791e+00 3.045188377681870762e+01
7.430000000000161364e+00 2.997129163818425468e+01
7.450000000000160938e+00 2.986442533693200474e+01
7.470000000000160512e+00 2.954341906141167584e+01
7.490000000000160085e+00 2.968412105057987205e+01
7.510000000000159659e+00 2.866333569355094113e+01
7.530000000000159233e+00 2.900198877307900247e+01
7.550000000000158806e+00 2.855859816243269123e+01
7.570000000000158380e+00 2.854427548396345671e+01
7.590000000000157954e+00 2.810844130856703771e+01
7.610000000000157527e+00 2.769497093340282845e+01
7.630000000000157101e+00 2.762168935977622652e+01
7.650000000000156675e+00 2.735884588508305626e+01
7.670000000000156248e+00 2.739237043259934623e+01
7.690000000000155822e+00 2.684681503601521513e+01
7.710000000000155396e+00 2.670102346570561025e+01
7.730000000000154969e+00 2.658168676372789108e+01
7.750000000000154543e+00 2.653211237932705657e+01
7.770000000000154117e+00 2.627911657400298040e+01
7.790000000000153690e+00 2.644675431920226671e+01
7.810000000000153264e+00 2.594658692702796898e+01
7.830000000000152838e+00 2.572482144494887635e+01
7.850000000000152411e+00 2.571780317160692064e+01
7.870000000000151985e+00 2.576785199701805951e+01
7.890000000000151559e+00 2.532548355416348329e+01
7.910000000000151132e+00 2.541441622521134391e+01
7.930000000000150706e+00 2.522875425576070541e+01
7.950000000000150280e+00 2.495896552854006245e+01
7.970000000000149853e+00 2.476917153101231150e+01
