# Redshift		Merger Rate Density [Gpc^-3yr^-1]
1.000000000031931770e-02 1.965919886297989194e+02
3.000000000031888964e-02 2.067242821722526571e+02
5.000000000031846331e-02 2.170144072196399634e+02
7.000000000031804392e-02 2.279653077715558709e+02
9.000000000031761760e-02 2.390870734610319062e+02
1.100000000003171913e-01 2.504569789970838656e+02
1.300000000003167511e-01 2.621600245589918359e+02
1.500000000003163247e-01 2.741565564419593670e+02
1.700000000003158984e-01 2.860894804833183684e+02
1.900000000003154721e-01 2.986807560727755231e+02
2.100000000003150458e-01 3.114104617744462757e+02
2.300000000003146194e-01 3.248098497311016217e+02
2.500000000003141931e-01 3.386688201323431713e+02
2.700000000003137668e-01 3.517615323651223775e+02
2.900000000003133405e-01 3.655911331346421207e+02
3.100000000003129141e-01 3.803563586384166229e+02
3.300000000003124878e-01 3.949373024066740641e+02
3.500000000003120615e-01 4.104443766919779932e+02
3.700000000003116352e-01 4.247385397038434576e+02
3.900000000003112088e-01 4.405291592574978949e+02
4.100000000003107825e-01 4.568732712894678230e+02
4.300000000003103562e-01 4.727665510884714877e+02
4.500000000003099299e-01 4.893624128493809735e+02
4.700000000003095035e-01 5.059804544006552192e+02
4.900000000003090772e-01 5.233613165707056396e+02
5.100000000003086509e-01 5.403648658701407612e+02
5.300000000003082246e-01 5.577759460239445843e+02
5.500000000003077982e-01 5.764811458140250124e+02
5.700000000003073719e-01 5.942578498603589878e+02
5.900000000003069456e-01 6.123833828163078579e+02
6.100000000003065193e-01 6.310311718609316358e+02
6.300000000003060929e-01 6.497819442305827806e+02
6.500000000003056666e-01 6.690388699002592148e+02
6.700000000003052403e-01 6.886552870226865934e+02
6.900000000003048140e-01 7.074069069941780299e+02
7.100000000003043876e-01 7.289673841755649164e+02
7.300000000003039613e-01 7.474115491828623590e+02
7.500000000003035350e-01 7.678226764095823000e+02
7.700000000003031086e-01 7.878096636403838602e+02
7.900000000003026823e-01 8.087550007439348292e+02
8.100000000003022560e-01 8.302226766955336643e+02
8.300000000003018297e-01 8.509335768651833405e+02
8.500000000003014033e-01 8.723071950536258328e+02
8.700000000003009770e-01 8.925205914801673543e+02
8.900000000003005507e-01 9.153825179629584454e+02
9.100000000003001244e-01 9.359980030015724424e+02
9.300000000002996980e-01 9.583827446445752685e+02
9.500000000002992717e-01 9.794052198055637746e+02
9.700000000002988454e-01 1.001703366087306222e+03
9.900000000002984191e-01 1.023601079255978902e+03
1.010000000000297993e+00 1.045156292091753130e+03
1.030000000000297566e+00 1.065402650907577708e+03
1.050000000000297140e+00 1.086797824681692418e+03
1.070000000000296714e+00 1.110110281651076548e+03
1.090000000000296287e+00 1.130413551530409904e+03
1.110000000000295861e+00 1.153734022792515816e+03
1.130000000000295435e+00 1.173680519890880078e+03
1.150000000000295008e+00 1.195668014632408585e+03
1.170000000000294582e+00 1.216557459595193905e+03
1.190000000000294156e+00 1.237581606247565333e+03
1.210000000000293729e+00 1.257934692375523809e+03
1.230000000000293303e+00 1.278621258808528864e+03
1.250000000000292877e+00 1.300308443578392598e+03
1.270000000000292451e+00 1.319738324274021352e+03
1.290000000000292024e+00 1.339694327925372590e+03
1.310000000000291598e+00 1.358410818184502432e+03
1.330000000000291172e+00 1.376145658374296090e+03
1.350000000000290745e+00 1.396640064266330910e+03
1.370000000000290319e+00 1.413479890562703531e+03
1.390000000000289893e+00 1.432249981747657785e+03
1.410000000000289466e+00 1.448975990630873639e+03
1.430000000000289040e+00 1.466651550260862450e+03
1.450000000000288614e+00 1.483706181206185875e+03
1.470000000000288187e+00 1.500083320820293920e+03
1.490000000000287761e+00 1.516738356370566862e+03
1.510000000000287335e+00 1.533035011709784385e+03
1.530000000000286908e+00 1.546289793888041231e+03
1.550000000000286482e+00 1.563275298735846945e+03
1.570000000000286056e+00 1.576319209116549473e+03
1.590000000000285629e+00 1.589953412813947807e+03
1.610000000000285203e+00 1.605593918164421439e+03
1.630000000000284777e+00 1.615193533408135181e+03
1.650000000000284350e+00 1.630779355558253428e+03
1.670000000000283924e+00 1.643708782443605742e+03
1.690000000000283498e+00 1.658957085855989817e+03
1.710000000000283071e+00 1.673338461901969140e+03
1.730000000000282645e+00 1.684053274122923767e+03
1.750000000000282219e+00 1.684763956988218979e+03
1.770000000000281792e+00 1.681313976426941508e+03
1.790000000000281366e+00 1.684162466848295480e+03
1.810000000000280940e+00 1.683847424497098700e+03
1.830000000000280513e+00 1.684071860522553152e+03
1.850000000000280087e+00 1.686359476027550272e+03
1.870000000000279661e+00 1.688273211404562744e+03
1.890000000000279234e+00 1.691377431313221450e+03
1.910000000000278808e+00 1.695417679856617951e+03
1.930000000000278382e+00 1.703860141629840655e+03
1.950000000000277955e+00 1.713502714166064152e+03
1.970000000000277529e+00 1.709703846935050251e+03
1.990000000000277103e+00 1.707104814382379118e+03
2.010000000000276899e+00 1.697953213942491857e+03
2.030000000000276472e+00 1.690338978323095034e+03
2.050000000000276046e+00 1.693740665095053828e+03
2.070000000000275620e+00 1.686353580473740749e+03
2.090000000000275193e+00 1.683596870038993984e+03
2.110000000000274767e+00 1.681804225904146051e+03
2.130000000000274341e+00 1.673418822700623650e+03
2.150000000000273914e+00 1.667657725327146409e+03
2.170000000000273488e+00 1.656459448282070980e+03
2.190000000000273062e+00 1.647166629468405517e+03
2.210000000000272635e+00 1.634656169742747124e+03
2.230000000000272209e+00 1.616225522138321139e+03
2.250000000000271783e+00 1.593124967194338979e+03
2.270000000000271356e+00 1.568072779078035865e+03
2.290000000000270930e+00 1.551473959903475816e+03
2.310000000000270504e+00 1.533837092154841912e+03
2.330000000000270077e+00 1.521666184762168996e+03
2.350000000000269651e+00 1.507402966367137424e+03
2.370000000000269225e+00 1.494505413357531779e+03
2.390000000000268798e+00 1.481538908563873747e+03
2.410000000000268372e+00 1.469245193782691786e+03
2.430000000000267946e+00 1.453766211777487797e+03
2.450000000000267519e+00 1.437802405165399477e+03
2.470000000000267093e+00 1.421145990712517687e+03
2.490000000000266667e+00 1.407280987412000059e+03
2.510000000000266240e+00 1.393766447271930929e+03
2.530000000000265814e+00 1.377491030590245828e+03
2.550000000000265388e+00 1.362807225979256145e+03
2.570000000000264961e+00 1.347981979759907972e+03
2.590000000000264535e+00 1.331069748762483869e+03
2.610000000000264109e+00 1.314446670318445967e+03
2.630000000000263682e+00 1.298539146630518189e+03
2.650000000000263256e+00 1.283846382911058981e+03
2.670000000000262830e+00 1.268224415615457019e+03
2.690000000000262403e+00 1.252869436517737313e+03
2.710000000000261977e+00 1.236834442170330249e+03
2.730000000000261551e+00 1.221899536671647411e+03
2.750000000000261124e+00 1.207029355906244746e+03
2.770000000000260698e+00 1.191568967717455962e+03
2.790000000000260272e+00 1.174879619874614264e+03
2.810000000000259845e+00 1.160974557728015043e+03
2.830000000000259419e+00 1.145483947723409074e+03
2.850000000000258993e+00 1.130091463166011636e+03
2.870000000000258567e+00 1.115944076885096592e+03
2.890000000000258140e+00 1.101175628326420110e+03
2.910000000000257714e+00 1.087808828196390095e+03
2.930000000000257288e+00 1.072854824938720640e+03
2.950000000000256861e+00 1.058906024901392584e+03
2.970000000000256435e+00 1.045215054086989994e+03
2.990000000000256009e+00 1.029022726248942035e+03
3.010000000000255582e+00 1.014563067668239114e+03
3.030000000000255156e+00 1.000183672401930721e+03
3.050000000000254730e+00 9.873820255315423537e+02
3.070000000000254303e+00 9.730180203071065534e+02
3.090000000000253877e+00 9.599849416809652212e+02
3.110000000000253451e+00 9.477499644717572664e+02
3.130000000000253024e+00 9.339601978815596794e+02
3.150000000000252598e+00 9.214744386903698796e+02
3.170000000000252172e+00 9.106503590590053818e+02
3.190000000000251745e+00 8.984803928518585963e+02
3.210000000000251319e+00 8.856853581205555201e+02
3.230000000000250893e+00 8.753329746399975875e+02
3.250000000000250466e+00 8.639984916214784789e+02
3.270000000000250040e+00 8.500414689781266588e+02
3.290000000000249614e+00 8.376015915767113711e+02
3.310000000000249187e+00 8.216323582700072166e+02
3.330000000000248761e+00 8.068870317652498443e+02
3.350000000000248335e+00 7.934846647535414377e+02
3.370000000000247908e+00 7.805008921661582235e+02
3.390000000000247482e+00 7.669371950393152702e+02
3.410000000000247056e+00 7.556577234950539150e+02
3.430000000000246629e+00 7.442441490751848505e+02
3.450000000000246203e+00 7.318849268148104557e+02
3.470000000000245777e+00 7.226742970097425314e+02
3.490000000000245350e+00 7.127325086095390816e+02
3.510000000000244924e+00 7.024581727345596391e+02
3.530000000000244498e+00 6.920831338557244408e+02
3.550000000000244071e+00 6.827702349026644697e+02
3.570000000000243645e+00 6.754998444273434188e+02
3.590000000000243219e+00 6.665353915794938757e+02
3.610000000000242792e+00 6.592316833590333545e+02
3.630000000000242366e+00 6.490518122396624676e+02
3.650000000000241940e+00 6.365815569315003586e+02
3.670000000000241513e+00 6.252793090887792005e+02
3.690000000000241087e+00 6.155931404112467362e+02
3.710000000000240661e+00 6.061653420967769534e+02
3.730000000000240234e+00 5.962389661103010212e+02
3.750000000000239808e+00 5.868794624684265955e+02
3.770000000000239382e+00 5.798535606950467809e+02
3.790000000000238956e+00 5.724054306692891032e+02
3.810000000000238529e+00 5.646398470880860714e+02
3.830000000000238103e+00 5.562129691562478229e+02
3.850000000000237677e+00 5.503115797730129088e+02
3.870000000000237250e+00 5.407391521929446299e+02
3.890000000000236824e+00 5.330291476247425635e+02
3.910000000000236398e+00 5.250177613353570223e+02
3.930000000000235971e+00 5.178022092202676276e+02
3.950000000000235545e+00 5.105603442964246597e+02
3.970000000000235119e+00 5.027114550414174801e+02
3.990000000000234692e+00 4.953448186447081980e+02
4.010000000000234266e+00 4.865193934290331867e+02
4.030000000000233840e+00 4.797592619698893373e+02
4.050000000000233413e+00 4.719679271018047189e+02
4.070000000000232987e+00 4.636376249047989972e+02
4.090000000000232561e+00 4.565262766434909167e+02
4.110000000000232134e+00 4.494011412280243007e+02
4.130000000000231708e+00 4.453091381652691894e+02
4.150000000000231282e+00 4.385858740007879533e+02
4.170000000000230855e+00 4.320336397939580024e+02
4.190000000000230429e+00 4.280096802259129731e+02
4.210000000000230003e+00 4.206112936587589388e+02
4.230000000000229576e+00 4.177516078245247968e+02
4.250000000000229150e+00 4.095618910576309872e+02
4.270000000000228724e+00 4.031518145090889789e+02
4.290000000000228297e+00 3.965874804119616783e+02
4.310000000000227871e+00 3.906469827836149307e+02
4.330000000000227445e+00 3.848868958092583625e+02
4.350000000000227018e+00 3.798906821877808966e+02
4.370000000000226592e+00 3.735833742187775783e+02
4.390000000000226166e+00 3.679204564478681618e+02
4.410000000000225739e+00 3.639442758667889848e+02
4.430000000000225313e+00 3.586108041002369191e+02
4.450000000000224887e+00 3.547769115974355145e+02
4.470000000000224460e+00 3.509739772786652452e+02
4.490000000000224034e+00 3.468278943817423396e+02
4.510000000000223608e+00 3.428360248558880130e+02
4.530000000000223181e+00 3.381125846204743084e+02
4.550000000000222755e+00 3.337030466603630430e+02
4.570000000000222329e+00 3.293784057523524211e+02
4.590000000000221902e+00 3.259216358347764526e+02
4.610000000000221476e+00 3.220722053340644493e+02
4.630000000000221050e+00 3.180929369026570726e+02
4.650000000000220624e+00 3.150204607068845348e+02
4.670000000000220197e+00 3.094863174267258614e+02
4.690000000000219771e+00 3.057484918078013152e+02
4.710000000000219345e+00 3.012167753988863410e+02
4.730000000000218918e+00 2.959093412073256104e+02
4.750000000000218492e+00 2.932570503184985569e+02
4.770000000000218066e+00 2.889752250835529139e+02
4.790000000000217639e+00 2.852959273608774424e+02
4.810000000000217213e+00 2.811944914508934517e+02
4.830000000000216787e+00 2.784052549121687434e+02
4.850000000000216360e+00 2.750279177188947415e+02
4.870000000000215934e+00 2.731480835711412851e+02
4.890000000000215508e+00 2.701738677047529791e+02
4.910000000000215081e+00 2.670625351153850033e+02
4.930000000000214655e+00 2.644066669775922378e+02
4.950000000000214229e+00 2.611111503996901320e+02
4.970000000000213802e+00 2.583619132215579270e+02
4.990000000000213376e+00 2.561657242844561324e+02
5.010000000000212950e+00 2.514971209188156820e+02
5.030000000000212523e+00 2.488111383299542467e+02
5.050000000000212097e+00 2.453914780607724140e+02
5.070000000000211671e+00 2.417308664168258190e+02
5.090000000000211244e+00 2.387127636030800204e+02
5.110000000000210818e+00 2.359513310210421935e+02
5.130000000000210392e+00 2.320939738919489912e+02
5.150000000000209965e+00 2.279867496418928852e+02
5.170000000000209539e+00 2.251964074143433265e+02
5.190000000000209113e+00 2.222869673572865281e+02
5.210000000000208686e+00 2.189112562224276530e+02
5.230000000000208260e+00 2.169048788625176769e+02
5.250000000000207834e+00 2.146221374642930186e+02
5.270000000000207407e+00 2.111632237529377107e+02
5.290000000000206981e+00 2.094506148477597947e+02
5.310000000000206555e+00 2.070155713415316825e+02
5.330000000000206128e+00 2.044092309461235857e+02
5.350000000000205702e+00 2.017304195385014225e+02
5.370000000000205276e+00 2.003803198258638076e+02
5.390000000000204849e+00 1.986105901092514898e+02
5.410000000000204423e+00 1.961372260247358668e+02
5.430000000000203997e+00 1.939515570880121231e+02
5.450000000000203570e+00 1.920826940626455723e+02
5.470000000000203144e+00 1.894995954533205236e+02
5.490000000000202718e+00 1.875173384159677141e+02
5.510000000000202292e+00 1.850805799453412419e+02
5.530000000000201865e+00 1.831875614503314864e+02
5.550000000000201439e+00 1.810746710107062540e+02
5.570000000000201013e+00 1.792201194962133570e+02
5.590000000000200586e+00 1.773930927955496770e+02
5.610000000000200160e+00 1.756687436045043853e+02
5.630000000000199734e+00 1.734537281741740173e+02
5.650000000000199307e+00 1.708118987341677268e+02
5.670000000000198881e+00 1.687489925322806528e+02
5.690000000000198455e+00 1.666567274839797506e+02
5.710000000000198028e+00 1.644636112806061021e+02
5.730000000000197602e+00 1.627553082946735117e+02
5.750000000000197176e+00 1.610610232158171300e+02
5.770000000000196749e+00 1.597040217341852042e+02
5.790000000000196323e+00 1.569799475454043147e+02
5.810000000000195897e+00 1.556525651094123930e+02
5.830000000000195470e+00 1.538680773282731593e+02
5.850000000000195044e+00 1.519534715458264031e+02
5.870000000000194618e+00 1.502235983876740590e+02
5.890000000000194191e+00 1.494312215299285924e+02
5.910000000000193765e+00 1.477047368121160673e+02
5.930000000000193339e+00 1.458274335221572642e+02
5.950000000000192912e+00 1.448998334315485863e+02
5.970000000000192486e+00 1.423554447294794727e+02
5.990000000000192060e+00 1.416376150647249119e+02
6.010000000000191633e+00 1.399861302657568274e+02
6.030000000000191207e+00 1.386077377582939221e+02
6.050000000000190781e+00 1.370747672332663569e+02
6.070000000000190354e+00 1.357717446824257763e+02
6.090000000000189928e+00 1.340329290239439501e+02
6.110000000000189502e+00 1.324862244818104955e+02
6.130000000000189075e+00 1.312684876027400946e+02
6.150000000000188649e+00 1.298731182809116547e+02
6.170000000000188223e+00 1.279988671734342063e+02
6.190000000000187796e+00 1.264688212978067554e+02
6.210000000000187370e+00 1.247450654323126429e+02
6.230000000000186944e+00 1.228540894026701267e+02
6.250000000000186517e+00 1.214898578222254173e+02
6.270000000000186091e+00 1.196074893628587148e+02
6.290000000000185665e+00 1.187240435605638993e+02
6.310000000000185238e+00 1.174429439324378421e+02
6.330000000000184812e+00 1.164683828172678233e+02
6.350000000000184386e+00 1.149795314506501711e+02
6.370000000000183960e+00 1.138722063751165905e+02
6.390000000000183533e+00 1.126834074195039506e+02
6.410000000000183107e+00 1.113849470995357365e+02
6.430000000000182681e+00 1.107672654001537609e+02
6.450000000000182254e+00 1.094854704929536950e+02
6.470000000000181828e+00 1.088197829450331540e+02
6.490000000000181402e+00 1.072617445968525658e+02
6.510000000000180975e+00 1.068289083022102517e+02
6.530000000000180549e+00 1.051034626356902777e+02
6.550000000000180123e+00 1.040684323025543989e+02
6.570000000000179696e+00 1.031937219133088206e+02
6.590000000000179270e+00 1.022781961118316900e+02
6.610000000000178844e+00 1.009365156267897419e+02
6.630000000000178417e+00 9.997339025274359869e+01
6.650000000000177991e+00 9.988714220799334953e+01
6.670000000000177565e+00 9.832398378621385859e+01
6.690000000000177138e+00 9.692331459076727640e+01
6.710000000000176712e+00 9.557196274630231869e+01
6.730000000000176286e+00 9.499611268681709930e+01
6.750000000000175859e+00 9.330895819698000082e+01
6.770000000000175433e+00 9.221784966941856965e+01
6.790000000000175007e+00 9.155169804850606852e+01
6.810000000000174580e+00 9.040259390298623998e+01
6.830000000000174154e+00 8.949240337287780278e+01
6.850000000000173728e+00 8.798863086345906481e+01
6.870000000000173301e+00 8.726416465887244556e+01
6.890000000000172875e+00 8.650980215134072182e+01
6.910000000000172449e+00 8.555637386494164787e+01
6.930000000000172022e+00 8.487510333332062373e+01
6.950000000000171596e+00 8.377083802363550546e+01
6.970000000000171170e+00 8.349222528379593200e+01
6.990000000000170743e+00 8.256977932421375499e+01
7.010000000000170317e+00 8.160771747103848384e+01
7.030000000000169891e+00 8.078800518677707032e+01
7.050000000000169464e+00 7.996538147199615310e+01
7.070000000000169038e+00 7.905598642629159656e+01
7.090000000000168612e+00 7.874242408502645674e+01
7.110000000000168185e+00 7.782502213601414098e+01
7.130000000000167759e+00 7.687604507181106328e+01
7.150000000000167333e+00 7.626624343134795936e+01
7.170000000000166906e+00 7.584982788532924758e+01
7.190000000000166480e+00 7.497589008746390959e+01
7.210000000000166054e+00 7.385570475522270328e+01
7.230000000000165628e+00 7.328157295535869764e+01
7.250000000000165201e+00 7.222329004818300291e+01
7.270000000000164775e+00 7.115387301753477800e+01
7.290000000000164349e+00 7.068099253722222386e+01
7.310000000000163922e+00 6.968249455039202189e+01
7.330000000000163496e+00 6.915831882465730018e+01
7.350000000000163070e+00 6.823787440800730053e+01
7.370000000000162643e+00 6.798195558409452133e+01
7.390000000000162217e+00 6.711760914734513506e+01
7.410000000000161791e+00 6.638903370717385144e+01
7.430000000000161364e+00 6.566380053783217363e+01
7.450000000000160938e+00 6.544741771756535798e+01
7.470000000000160512e+00 6.470950988193975206e+01
7.490000000000160085e+00 6.400847101695778463e+01
7.510000000000159659e+00 6.352908488711539547e+01
7.530000000000159233e+00 6.300296497684499286e+01
7.550000000000158806e+00 6.242422262367749397e+01
7.570000000000158380e+00 6.182669865173340895e+01
7.590000000000157954e+00 6.083288197886772508e+01
7.610000000000157527e+00 6.016601188783564425e+01
7.630000000000157101e+00 5.974236571883250946e+01
7.650000000000156675e+00 5.911963996356913498e+01
7.670000000000156248e+00 5.863350846839995256e+01
7.690000000000155822e+00 5.811700106168463265e+01
7.710000000000155396e+00 5.738366701495162658e+01
7.730000000000154969e+00 5.687523015442995700e+01
7.750000000000154543e+00 5.614482155331130997e+01
7.770000000000154117e+00 5.540436625552524674e+01
7.790000000000153690e+00 5.515916283620082083e+01
7.810000000000153264e+00 5.438372152171658058e+01
7.830000000000152838e+00 5.404177057022944553e+01
7.850000000000152411e+00 5.366548821994027207e+01
7.870000000000151985e+00 5.305224480979440216e+01
7.890000000000151559e+00 5.291757332812188253e+01
7.910000000000151132e+00 5.211878739881076683e+01
7.930000000000150706e+00 5.159916259634715630e+01
7.950000000000150280e+00 5.086466145788038062e+01
7.970000000000149853e+00 5.030610206421044239e+01
