# Redshift		Merger Rate Density [Gpc^-3yr^-1]
1.000000000031931770e-02 1.376939764519676324e+01
3.000000000031888964e-02 1.427131972871286614e+01
5.000000000031846331e-02 1.479271688605285995e+01
7.000000000031804392e-02 1.540901223325961489e+01
9.000000000031761760e-02 1.593700059476646658e+01
1.100000000003171913e-01 1.664362088931505212e+01
1.300000000003167511e-01 1.720307178435453110e+01
1.500000000003163247e-01 1.788660317235713748e+01
1.700000000003158984e-01 1.848474612268800854e+01
1.900000000003154721e-01 1.913237383736238684e+01
2.100000000003150458e-01 1.981556237568982937e+01
2.300000000003146194e-01 2.033164486629575407e+01
2.500000000003141931e-01 2.104462396920861877e+01
2.700000000003137668e-01 2.171233733613181727e+01
2.900000000003133405e-01 2.228183215771084136e+01
3.100000000003129141e-01 2.297545221999227749e+01
3.300000000003124878e-01 2.398701927466079553e+01
3.500000000003120615e-01 2.436557781465860728e+01
3.700000000003116352e-01 2.530715394680081687e+01
3.900000000003112088e-01 2.580967050643767635e+01
4.100000000003107825e-01 2.673531977483991184e+01
4.300000000003103562e-01 2.757576414099346351e+01
4.500000000003099299e-01 2.816670280678026828e+01
4.700000000003095035e-01 2.910200632645596741e+01
4.900000000003090772e-01 2.999586783577333904e+01
5.100000000003086509e-01 3.084919027483023157e+01
5.300000000003082246e-01 3.171267312749641576e+01
5.500000000003077982e-01 3.256190980230625343e+01
5.700000000003073719e-01 3.371681375196091324e+01
5.900000000003069456e-01 3.452580642386844545e+01
6.100000000003065193e-01 3.530447865150623699e+01
6.300000000003060929e-01 3.669734701838223856e+01
6.500000000003056666e-01 3.737181842053212222e+01
6.700000000003052403e-01 3.852108285296577606e+01
6.900000000003048140e-01 3.953302358523337290e+01
7.100000000003043876e-01 4.035318782143681204e+01
7.300000000003039613e-01 4.160970654828703630e+01
7.500000000003035350e-01 4.260281606956866796e+01
7.700000000003031086e-01 4.393488403466533754e+01
7.900000000003026823e-01 4.481745940264151074e+01
8.100000000003022560e-01 4.627136676946583549e+01
8.300000000003018297e-01 4.701949385170333784e+01
8.500000000003014033e-01 4.853505969719405755e+01
8.700000000003009770e-01 4.934317432380377255e+01
8.900000000003005507e-01 5.080207030727986250e+01
9.100000000003001244e-01 5.216974257356350364e+01
9.300000000002996980e-01 5.308090824027761556e+01
9.500000000002992717e-01 5.468100196474888008e+01
9.700000000002988454e-01 5.556595022076039925e+01
9.900000000002984191e-01 5.708036883178831999e+01
1.010000000000297993e+00 5.814794962955077295e+01
1.030000000000297566e+00 5.951846337148400323e+01
1.050000000000297140e+00 6.082486834662608288e+01
1.070000000000296714e+00 6.178172242573317163e+01
1.090000000000296287e+00 6.340718896043441788e+01
1.110000000000295861e+00 6.464390683547900096e+01
1.130000000000295435e+00 6.594603673804328992e+01
1.150000000000295008e+00 6.692846991983967087e+01
1.170000000000294582e+00 6.860395443306593677e+01
1.190000000000294156e+00 6.987422337501723746e+01
1.210000000000293729e+00 7.099288474484734479e+01
1.230000000000293303e+00 7.232231833685746381e+01
1.250000000000292877e+00 7.390851393723797003e+01
1.270000000000292451e+00 7.457650502357049049e+01
1.290000000000292024e+00 7.633355342981505487e+01
1.310000000000291598e+00 7.779256033997540953e+01
1.330000000000291172e+00 7.906735672021359562e+01
1.350000000000290745e+00 8.013456144557078176e+01
1.370000000000290319e+00 8.166730372048762376e+01
1.390000000000289893e+00 8.260876280465502930e+01
1.410000000000289466e+00 8.370677462206262476e+01
1.430000000000289040e+00 8.544759385846208488e+01
1.450000000000288614e+00 8.632927973300181179e+01
1.470000000000288187e+00 8.760329899848642299e+01
1.490000000000287761e+00 8.886327543817441210e+01
1.510000000000287335e+00 8.959074559565532070e+01
1.530000000000286908e+00 9.117805356063989564e+01
1.550000000000286482e+00 9.223426697577153277e+01
1.570000000000286056e+00 9.358818835322604457e+01
1.590000000000285629e+00 9.434425030645178367e+01
1.610000000000285203e+00 9.540389644001173508e+01
1.630000000000284777e+00 9.649110510379348682e+01
1.650000000000284350e+00 9.743443944796338485e+01
1.670000000000283924e+00 9.921941409587809346e+01
1.690000000000283498e+00 9.997452698797300741e+01
1.710000000000283071e+00 1.005564391646091025e+02
1.730000000000282645e+00 1.011490656362404792e+02
1.750000000000282219e+00 1.017019698701348034e+02
1.770000000000281792e+00 1.029339029254010001e+02
1.790000000000281366e+00 1.039021651506508448e+02
1.810000000000280940e+00 1.054415495310428525e+02
1.830000000000280513e+00 1.062080149326579033e+02
1.850000000000280087e+00 1.061036724801645050e+02
1.870000000000279661e+00 1.077426585079130206e+02
1.890000000000279234e+00 1.103643014675797218e+02
1.910000000000278808e+00 1.122083832108446586e+02
1.930000000000278382e+00 1.115182845822296400e+02
1.950000000000277955e+00 1.128364237193730588e+02
1.970000000000277529e+00 1.124220587079759497e+02
1.990000000000277103e+00 1.118098867405876433e+02
2.010000000000276899e+00 1.109353277339244670e+02
2.030000000000276472e+00 1.106742309212811364e+02
2.050000000000276046e+00 1.106574636621388095e+02
2.070000000000275620e+00 1.113060206445071145e+02
2.090000000000275193e+00 1.112749042779373667e+02
2.110000000000274767e+00 1.113939426772700330e+02
2.130000000000274341e+00 1.098703406229022903e+02
2.150000000000273914e+00 1.098426117015065842e+02
2.170000000000273488e+00 1.094064529575446869e+02
2.190000000000273062e+00 1.093584716394736631e+02
2.210000000000272635e+00 1.088224411303269790e+02
2.230000000000272209e+00 1.084785632993144304e+02
2.250000000000271783e+00 1.076418914907383311e+02
2.270000000000271356e+00 1.075365366424961309e+02
2.290000000000270930e+00 1.073668013285173970e+02
2.310000000000270504e+00 1.072535838623248310e+02
2.330000000000270077e+00 1.071192695329611411e+02
2.350000000000269651e+00 1.065057911822668189e+02
2.370000000000269225e+00 1.062243432034278499e+02
2.390000000000268798e+00 1.058718230232373543e+02
2.410000000000268372e+00 1.057409211237091569e+02
2.430000000000267946e+00 1.054065862189027030e+02
2.450000000000267519e+00 1.051297907613314067e+02
2.470000000000267093e+00 1.043728892431309418e+02
2.490000000000266667e+00 1.033938830400576876e+02
2.510000000000266240e+00 1.028800877659884776e+02
2.530000000000265814e+00 1.020304276604832125e+02
2.550000000000265388e+00 1.012027100319710371e+02
2.570000000000264961e+00 1.011498898809027622e+02
2.590000000000264535e+00 1.005095200750456428e+02
2.610000000000264109e+00 9.990298512121982810e+01
2.630000000000263682e+00 9.930464717950333409e+01
2.650000000000263256e+00 9.865276026607575943e+01
2.670000000000262830e+00 9.813740878545591784e+01
2.690000000000262403e+00 9.732452507646544859e+01
2.710000000000261977e+00 9.663808744590402000e+01
2.730000000000261551e+00 9.608818831622153311e+01
2.750000000000261124e+00 9.539354670523154311e+01
2.770000000000260698e+00 9.463163858362335645e+01
2.790000000000260272e+00 9.394863505718096519e+01
2.810000000000259845e+00 9.314067288550967305e+01
2.830000000000259419e+00 9.281292887976570682e+01
2.850000000000258993e+00 9.193454397857826166e+01
2.870000000000258567e+00 9.131315928662957049e+01
2.890000000000258140e+00 9.059146906305537073e+01
2.910000000000257714e+00 8.993766994694500738e+01
2.930000000000257288e+00 8.924867865992898430e+01
2.950000000000256861e+00 8.847104074680336794e+01
2.970000000000256435e+00 8.801906625786561733e+01
2.990000000000256009e+00 8.764197787263108808e+01
3.010000000000255582e+00 8.693212869419507172e+01
3.030000000000255156e+00 8.605602759035967608e+01
3.050000000000254730e+00 8.524443992252643909e+01
3.070000000000254303e+00 8.488324592313676931e+01
3.090000000000253877e+00 8.426926728486014895e+01
3.110000000000253451e+00 8.338342684993052956e+01
3.130000000000253024e+00 8.274597195380296455e+01
3.150000000000252598e+00 8.247041049511136634e+01
3.170000000000252172e+00 8.198594886121099989e+01
3.190000000000251745e+00 8.205054432484206473e+01
3.210000000000251319e+00 8.096386053579328745e+01
3.230000000000250893e+00 8.100566405387218083e+01
3.250000000000250466e+00 7.975856113229005473e+01
3.270000000000250040e+00 7.856135021071197855e+01
3.290000000000249614e+00 7.770337942333586057e+01
3.310000000000249187e+00 7.696529593375787215e+01
3.330000000000248761e+00 7.604361313126327104e+01
3.350000000000248335e+00 7.613363358797209912e+01
3.370000000000247908e+00 7.538544811556343461e+01
3.390000000000247482e+00 7.473437656167469356e+01
3.410000000000247056e+00 7.443969356954576710e+01
3.430000000000246629e+00 7.335289994003866809e+01
3.450000000000246203e+00 7.267243501423773466e+01
3.470000000000245777e+00 7.171294171534557904e+01
3.490000000000245350e+00 7.093883414692328415e+01
3.510000000000244924e+00 7.097864100958449285e+01
3.530000000000244498e+00 7.053506534577080345e+01
3.550000000000244071e+00 6.956355030727152666e+01
3.570000000000243645e+00 6.865602969968094271e+01
3.590000000000243219e+00 6.804790873450349409e+01
3.610000000000242792e+00 6.678693149437897603e+01
3.630000000000242366e+00 6.665404723079046789e+01
3.650000000000241940e+00 6.541792005530598431e+01
3.670000000000241513e+00 6.498684873920393557e+01
3.690000000000241087e+00 6.395467645969697656e+01
3.710000000000240661e+00 6.399197817534562205e+01
3.730000000000240234e+00 6.261344222456001063e+01
3.750000000000239808e+00 6.244377036941934733e+01
3.770000000000239382e+00 6.166629559759789458e+01
3.790000000000238956e+00 6.141711083927896908e+01
3.810000000000238529e+00 6.059128384395106792e+01
3.830000000000238103e+00 6.017194540722353224e+01
3.850000000000237677e+00 5.919654665289814233e+01
3.870000000000237250e+00 5.890684266401657965e+01
3.890000000000236824e+00 5.876991489745716990e+01
3.910000000000236398e+00 5.798639257923632329e+01
3.930000000000235971e+00 5.731011885822429974e+01
3.950000000000235545e+00 5.668842760592917784e+01
3.970000000000235119e+00 5.589412957320120512e+01
3.990000000000234692e+00 5.569452355901760399e+01
4.010000000000234266e+00 5.455585224963887470e+01
4.030000000000233840e+00 5.448661173782140565e+01
4.050000000000233413e+00 5.329602084506244353e+01
4.070000000000232987e+00 5.277695960777835182e+01
4.090000000000232561e+00 5.254284381921818436e+01
4.110000000000232134e+00 5.206722501065756603e+01
4.130000000000231708e+00 5.188404243372605151e+01
4.150000000000231282e+00 5.209024890420636922e+01
4.170000000000230855e+00 5.096144226217089823e+01
4.190000000000230429e+00 5.092188042025404116e+01
4.210000000000230003e+00 5.008748639606971409e+01
4.230000000000229576e+00 4.966207999677378382e+01
4.250000000000229150e+00 4.836221846395606860e+01
4.270000000000228724e+00 4.798580513153640936e+01
4.290000000000228297e+00 4.746993107078243668e+01
4.310000000000227871e+00 4.663257692773005658e+01
4.330000000000227445e+00 4.657114952952024112e+01
4.350000000000227018e+00 4.616826249000703797e+01
4.370000000000226592e+00 4.570552326004142429e+01
4.390000000000226166e+00 4.524537616182719546e+01
4.410000000000225739e+00 4.480814671266875138e+01
4.430000000000225313e+00 4.410273136847169440e+01
4.450000000000224887e+00 4.349980762707601656e+01
4.470000000000224460e+00 4.280833539686152278e+01
4.490000000000224034e+00 4.240825940651563997e+01
4.510000000000223608e+00 4.186067614387441438e+01
4.530000000000223181e+00 4.135254536118139868e+01
4.550000000000222755e+00 4.093980147738442810e+01
4.570000000000222329e+00 4.046346650860736816e+01
4.590000000000221902e+00 4.012600243164767022e+01
4.610000000000221476e+00 3.947361608778549424e+01
4.630000000000221050e+00 3.908627927535751923e+01
4.650000000000220624e+00 3.854722852279625300e+01
4.670000000000220197e+00 3.800260092917750399e+01
4.690000000000219771e+00 3.760659466710180254e+01
4.710000000000219345e+00 3.752570611025862490e+01
4.730000000000218918e+00 3.673771678267650032e+01
4.750000000000218492e+00 3.621800880387564803e+01
4.770000000000218066e+00 3.616532632730912411e+01
4.790000000000217639e+00 3.565899834968271165e+01
4.810000000000217213e+00 3.509956333442300291e+01
4.830000000000216787e+00 3.521923722579964533e+01
4.850000000000216360e+00 3.462789280813169768e+01
4.870000000000215934e+00 3.466952048127730990e+01
4.890000000000215508e+00 3.452170997068894565e+01
4.910000000000215081e+00 3.362824448486770024e+01
4.930000000000214655e+00 3.375312074356890690e+01
4.950000000000214229e+00 3.298763909386888571e+01
4.970000000000213802e+00 3.249040507744344808e+01
4.990000000000213376e+00 3.227843618760559963e+01
5.010000000000212950e+00 3.155456790094946484e+01
5.030000000000212523e+00 3.102718674004803034e+01
5.050000000000212097e+00 3.073065096190765644e+01
5.070000000000211671e+00 3.019833007147123283e+01
5.090000000000211244e+00 2.976487352432045697e+01
5.110000000000210818e+00 2.977902832108767939e+01
5.130000000000210392e+00 2.886577908382630753e+01
5.150000000000209965e+00 2.882306897759808351e+01
5.170000000000209539e+00 2.856417711661378078e+01
5.190000000000209113e+00 2.808664131943277198e+01
5.210000000000208686e+00 2.772413266485666128e+01
5.230000000000208260e+00 2.706815327022114559e+01
5.250000000000207834e+00 2.655011973184717178e+01
5.270000000000207407e+00 2.619115841605870543e+01
5.290000000000206981e+00 2.589986812823362428e+01
5.310000000000206555e+00 2.560695496812887839e+01
5.330000000000206128e+00 2.510733006612296592e+01
5.350000000000205702e+00 2.470039750629688058e+01
5.370000000000205276e+00 2.443569553282700113e+01
5.390000000000204849e+00 2.398653229644300566e+01
5.410000000000204423e+00 2.368846278351860235e+01
5.430000000000203997e+00 2.336786666512560018e+01
5.450000000000203570e+00 2.331420399881524119e+01
5.470000000000203144e+00 2.292763436808679245e+01
5.490000000000202718e+00 2.279937723146165141e+01
5.510000000000202292e+00 2.263610533505709554e+01
5.530000000000201865e+00 2.218421365805908607e+01
5.550000000000201439e+00 2.211932188412771794e+01
5.570000000000201013e+00 2.166607389178439647e+01
5.590000000000200586e+00 2.122925949800218959e+01
5.610000000000200160e+00 2.102614254650621817e+01
5.630000000000199734e+00 2.058288832212581809e+01
5.650000000000199307e+00 2.014026606017624488e+01
5.670000000000198881e+00 2.006791505602065584e+01
5.690000000000198455e+00 1.963468980456864443e+01
5.710000000000198028e+00 1.938148129862434388e+01
5.730000000000197602e+00 1.917839675898843055e+01
5.750000000000197176e+00 1.916963539421676543e+01
5.770000000000196749e+00 1.856078730231250873e+01
5.790000000000196323e+00 1.841797746545562831e+01
5.810000000000195897e+00 1.792875210222915427e+01
5.830000000000195470e+00 1.801322119965198354e+01
5.850000000000195044e+00 1.764533914091466826e+01
5.870000000000194618e+00 1.729348365731057768e+01
5.890000000000194191e+00 1.685560178008075738e+01
5.910000000000193765e+00 1.656579801310877542e+01
5.930000000000193339e+00 1.624331215056601607e+01
5.950000000000192912e+00 1.613800087137890316e+01
5.970000000000192486e+00 1.589186351569581390e+01
5.990000000000192060e+00 1.571090220868216392e+01
6.010000000000191633e+00 1.547578149552027149e+01
6.030000000000191207e+00 1.533279307879981523e+01
6.050000000000190781e+00 1.508227935161626654e+01
6.070000000000190354e+00 1.480995943734541243e+01
6.090000000000189928e+00 1.448436491177817764e+01
6.110000000000189502e+00 1.440005556202034320e+01
6.130000000000189075e+00 1.395640290309063047e+01
6.150000000000188649e+00 1.383135009545342697e+01
6.170000000000188223e+00 1.362473048041049140e+01
6.190000000000187796e+00 1.336977971971452561e+01
6.210000000000187370e+00 1.314182674295582309e+01
6.230000000000186944e+00 1.294887705953024692e+01
6.250000000000186517e+00 1.273460579825731287e+01
6.270000000000186091e+00 1.242713410502041427e+01
6.290000000000185665e+00 1.231433375635177185e+01
6.310000000000185238e+00 1.236751087799009063e+01
6.330000000000184812e+00 1.194564891041960664e+01
6.350000000000184386e+00 1.170656990367610284e+01
6.370000000000183960e+00 1.154189516833293006e+01
6.390000000000183533e+00 1.140874210168096781e+01
6.410000000000183107e+00 1.120699024395747223e+01
6.430000000000182681e+00 1.098421591407602982e+01
6.450000000000182254e+00 1.075091627597599064e+01
6.470000000000181828e+00 1.050886908456661750e+01
6.490000000000181402e+00 1.044713753754461649e+01
6.510000000000180975e+00 1.023337216674124939e+01
6.530000000000180549e+00 1.006200853759034253e+01
6.550000000000180123e+00 9.985216490438162396e+00
6.570000000000179696e+00 9.780641694635884065e+00
6.590000000000179270e+00 9.701581320741633263e+00
6.610000000000178844e+00 9.576745420189404001e+00
6.630000000000178417e+00 9.187398568645811281e+00
6.650000000000177991e+00 9.203459772391376248e+00
6.670000000000177565e+00 9.007917238294698592e+00
6.690000000000177138e+00 8.667657579547279667e+00
6.710000000000176712e+00 8.555116980518942427e+00
6.730000000000176286e+00 8.517885343296795142e+00
6.750000000000175859e+00 8.274336743917976023e+00
6.770000000000175433e+00 8.056110168694781137e+00
6.790000000000175007e+00 8.089317751918773780e+00
6.810000000000174580e+00 7.893226767334337701e+00
6.830000000000174154e+00 7.770084664320205725e+00
6.850000000000173728e+00 7.546543581690717595e+00
6.870000000000173301e+00 7.437686664421071292e+00
6.890000000000172875e+00 7.294019155446300751e+00
6.910000000000172449e+00 7.158476342230367884e+00
6.930000000000172022e+00 7.175371389466530303e+00
6.950000000000171596e+00 6.952124828056416739e+00
6.970000000000171170e+00 6.800607423173048893e+00
6.990000000000170743e+00 6.695095998183380637e+00
7.010000000000170317e+00 6.507233527437147558e+00
7.030000000000169891e+00 6.456881191972748901e+00
7.050000000000169464e+00 6.297050052708663692e+00
7.070000000000169038e+00 6.096346291301779630e+00
7.090000000000168612e+00 6.065653389538129936e+00
7.110000000000168185e+00 5.901270429086031832e+00
7.130000000000167759e+00 5.809021552664315635e+00
7.150000000000167333e+00 5.683025802979924990e+00
7.170000000000166906e+00 5.528461896266196440e+00
7.190000000000166480e+00 5.438133676206549083e+00
7.210000000000166054e+00 5.266598724461433179e+00
7.230000000000165628e+00 5.225959790493363677e+00
7.250000000000165201e+00 5.136995949734523670e+00
7.270000000000164775e+00 5.072813156401847046e+00
7.290000000000164349e+00 4.920523990987654805e+00
7.310000000000163922e+00 4.832084019653177798e+00
7.330000000000163496e+00 4.810848374426350382e+00
7.350000000000163070e+00 4.705829184324049841e+00
7.370000000000162643e+00 4.581475832372134072e+00
7.390000000000162217e+00 4.530285396181864321e+00
7.410000000000161791e+00 4.353877794100752041e+00
7.430000000000161364e+00 4.239552131239960886e+00
7.450000000000160938e+00 4.198729508183918213e+00
7.470000000000160512e+00 3.996803699480952154e+00
7.490000000000160085e+00 3.966512523202166740e+00
7.510000000000159659e+00 3.906911523819152077e+00
7.530000000000159233e+00 3.803914183177870889e+00
7.550000000000158806e+00 3.692507643177713739e+00
7.570000000000158380e+00 3.616289312788982357e+00
7.590000000000157954e+00 3.538338484809345541e+00
7.610000000000157527e+00 3.401955079158282214e+00
7.630000000000157101e+00 3.348225677498395836e+00
7.650000000000156675e+00 3.277544317917272299e+00
7.670000000000156248e+00 3.264979449404733725e+00
7.690000000000155822e+00 3.186406273500247188e+00
7.710000000000155396e+00 3.095379097711409067e+00
7.730000000000154969e+00 3.026168498514824279e+00
7.750000000000154543e+00 2.948478085604901988e+00
7.770000000000154117e+00 2.833622788953340965e+00
7.790000000000153690e+00 2.812196785090505191e+00
7.810000000000153264e+00 2.691845048985502586e+00
7.830000000000152838e+00 2.749600959994491944e+00
7.850000000000152411e+00 2.559047646715011837e+00
7.870000000000151985e+00 2.488340256385066951e+00
7.890000000000151559e+00 2.476086537150524958e+00
7.910000000000151132e+00 2.396683940976911398e+00
7.930000000000150706e+00 2.307739231278632897e+00
7.950000000000150280e+00 2.299920780272601828e+00
7.970000000000149853e+00 2.172660968608038701e+00
