# Redshift		Merger Rate Density [Gpc^-3yr^-1]
1.000000000031931770e-02 2.402566543295482404e+01
3.000000000031888964e-02 2.504508937122316681e+01
5.000000000031846331e-02 2.629950142478852726e+01
7.000000000031804392e-02 2.737606880574609747e+01
9.000000000031761760e-02 2.866346851450362720e+01
1.100000000003171913e-01 2.990115349526925925e+01
1.300000000003167511e-01 3.119724183119382133e+01
1.500000000003163247e-01 3.240345603609653580e+01
1.700000000003158984e-01 3.373036885363135440e+01
1.900000000003154721e-01 3.516227680972612291e+01
2.100000000003150458e-01 3.664454170161645408e+01
2.300000000003146194e-01 3.824599459750071162e+01
2.500000000003141931e-01 3.966979282158090570e+01
2.700000000003137668e-01 4.126229640311961333e+01
2.900000000003133405e-01 4.274184698493369439e+01
3.100000000003129141e-01 4.424752808460954157e+01
3.300000000003124878e-01 4.571782653904852367e+01
3.500000000003120615e-01 4.727025271821079144e+01
3.700000000003116352e-01 4.898810525152672568e+01
3.900000000003112088e-01 5.079092161836228314e+01
4.100000000003107825e-01 5.238579023509763744e+01
4.300000000003103562e-01 5.417054780482401100e+01
4.500000000003099299e-01 5.569959034484227089e+01
4.700000000003095035e-01 5.739811444355176917e+01
4.900000000003090772e-01 5.924934670803315129e+01
5.100000000003086509e-01 6.099759075807672559e+01
5.300000000003082246e-01 6.315645847830145954e+01
5.500000000003077982e-01 6.496794769742831477e+01
5.700000000003073719e-01 6.680973261375393690e+01
5.900000000003069456e-01 6.862835285582912093e+01
6.100000000003065193e-01 7.047499405620253299e+01
6.300000000003060929e-01 7.251050021169052684e+01
6.500000000003056666e-01 7.453183406538394706e+01
6.700000000003052403e-01 7.648975728640310479e+01
6.900000000003048140e-01 7.846237055160955265e+01
7.100000000003043876e-01 8.048888454842597184e+01
7.300000000003039613e-01 8.238486072105837366e+01
7.500000000003035350e-01 8.509288022923725237e+01
7.700000000003031086e-01 8.649263822184529715e+01
7.900000000003026823e-01 8.889620104228296782e+01
8.100000000003022560e-01 9.112683716321467386e+01
8.300000000003018297e-01 9.286298659496344499e+01
8.500000000003014033e-01 9.507623175103302060e+01
8.700000000003009770e-01 9.710570604891141500e+01
8.900000000003005507e-01 9.888763538380128182e+01
9.100000000003001244e-01 1.013475841166462885e+02
9.300000000002996980e-01 1.030355114692712277e+02
9.500000000002992717e-01 1.051395809768694107e+02
9.700000000002988454e-01 1.070920054288033896e+02
9.900000000002984191e-01 1.092894409538173335e+02
1.010000000000297993e+00 1.108582726630466482e+02
1.030000000000297566e+00 1.130824143327433120e+02
1.050000000000297140e+00 1.153534317576143877e+02
1.070000000000296714e+00 1.172646686699861505e+02
1.090000000000296287e+00 1.192164589688226499e+02
1.110000000000295861e+00 1.207228865920372556e+02
1.130000000000295435e+00 1.234431288971911584e+02
1.150000000000295008e+00 1.251181508986011153e+02
1.170000000000294582e+00 1.261497554509362118e+02
1.190000000000294156e+00 1.283310645155484337e+02
1.210000000000293729e+00 1.313564941322235882e+02
1.230000000000293303e+00 1.324266245979115411e+02
1.250000000000292877e+00 1.341810748805695823e+02
1.270000000000292451e+00 1.353318393068527428e+02
1.290000000000292024e+00 1.371800095611363304e+02
1.310000000000291598e+00 1.389904071818083366e+02
1.330000000000291172e+00 1.408780774917333360e+02
1.350000000000290745e+00 1.418175970056739743e+02
1.370000000000290319e+00 1.431931175133212548e+02
1.390000000000289893e+00 1.453675297559612432e+02
1.410000000000289466e+00 1.474795287221745639e+02
1.430000000000289040e+00 1.467631346309150047e+02
1.450000000000288614e+00 1.489180290226101988e+02
1.470000000000288187e+00 1.505037222755769903e+02
1.490000000000287761e+00 1.507580686834239430e+02
1.510000000000287335e+00 1.529417011223214047e+02
1.530000000000286908e+00 1.535245063493085809e+02
1.550000000000286482e+00 1.538697523672230432e+02
1.570000000000286056e+00 1.543922919532813012e+02
1.590000000000285629e+00 1.553383608711422426e+02
1.610000000000285203e+00 1.560957202069695029e+02
1.630000000000284777e+00 1.562844277086502700e+02
1.650000000000284350e+00 1.562422776288654234e+02
1.670000000000283924e+00 1.573398807445663010e+02
1.690000000000283498e+00 1.571212594722324241e+02
1.710000000000283071e+00 1.565465215954634743e+02
1.730000000000282645e+00 1.577817215155883162e+02
1.750000000000282219e+00 1.574392580063314995e+02
1.770000000000281792e+00 1.583693346634634906e+02
1.790000000000281366e+00 1.585842896177248349e+02
1.810000000000280940e+00 1.590843226455631907e+02
1.830000000000280513e+00 1.579287793339614439e+02
1.850000000000280087e+00 1.562192149766820535e+02
1.870000000000279661e+00 1.566751168573007362e+02
1.890000000000279234e+00 1.566135572319658706e+02
1.910000000000278808e+00 1.562925509789676255e+02
1.930000000000278382e+00 1.539493311005793714e+02
1.950000000000277955e+00 1.536565999489688181e+02
1.970000000000277529e+00 1.536330513003646558e+02
1.990000000000277103e+00 1.533601268512809099e+02
2.010000000000276899e+00 1.522124089400106755e+02
2.030000000000276472e+00 1.505784098004553755e+02
2.050000000000276046e+00 1.496473835107831576e+02
2.070000000000275620e+00 1.477668372815605835e+02
2.090000000000275193e+00 1.474410859871634329e+02
2.110000000000274767e+00 1.470973597313898722e+02
2.130000000000274341e+00 1.431399047354177583e+02
2.150000000000273914e+00 1.428801553681822440e+02
2.170000000000273488e+00 1.417753531846427677e+02
2.190000000000273062e+00 1.405598052279794672e+02
2.210000000000272635e+00 1.390265822385717627e+02
2.230000000000272209e+00 1.377249902510192499e+02
2.250000000000271783e+00 1.353420106174269506e+02
2.270000000000271356e+00 1.341988543678569670e+02
2.290000000000270930e+00 1.339337726813761265e+02
2.310000000000270504e+00 1.329944763821709444e+02
2.330000000000270077e+00 1.318001811735850310e+02
2.350000000000269651e+00 1.296122819512381454e+02
2.370000000000269225e+00 1.268032481534894913e+02
2.390000000000268798e+00 1.254858965850193329e+02
2.410000000000268372e+00 1.231223471898832855e+02
2.430000000000267946e+00 1.221472007127890720e+02
2.450000000000267519e+00 1.202575693895940105e+02
2.470000000000267093e+00 1.182929929302517991e+02
2.490000000000266667e+00 1.169014051982288009e+02
2.510000000000266240e+00 1.173160473746180514e+02
2.530000000000265814e+00 1.151873033636735499e+02
2.550000000000265388e+00 1.126154969217699318e+02
2.570000000000264961e+00 1.104231271424039988e+02
2.590000000000264535e+00 1.094375987816794265e+02
2.610000000000264109e+00 1.063050731197182728e+02
2.630000000000263682e+00 1.055102161480360081e+02
2.650000000000263256e+00 1.033981931546399124e+02
2.670000000000262830e+00 1.020465531375376997e+02
2.690000000000262403e+00 9.929861478162513322e+01
2.710000000000261977e+00 9.778908427956133664e+01
2.730000000000261551e+00 9.568908250771268342e+01
2.750000000000261124e+00 9.390766283446200191e+01
2.770000000000260698e+00 9.221821347309716543e+01
2.790000000000260272e+00 9.034326249309268064e+01
2.810000000000259845e+00 8.888346602723952117e+01
2.830000000000259419e+00 8.785034919889913851e+01
2.850000000000258993e+00 8.562361207459058221e+01
2.870000000000258567e+00 8.494713340829501647e+01
2.890000000000258140e+00 8.233192190214111861e+01
2.910000000000257714e+00 8.122171789722237634e+01
2.930000000000257288e+00 7.972175835121815624e+01
2.950000000000256861e+00 7.829118752793561953e+01
2.970000000000256435e+00 7.696399578489800319e+01
2.990000000000256009e+00 7.577384023982750705e+01
3.010000000000255582e+00 7.364982328526451738e+01
3.030000000000255156e+00 7.273834745824302672e+01
3.050000000000254730e+00 7.112761962575420682e+01
3.070000000000254303e+00 6.970132840024005816e+01
3.090000000000253877e+00 6.886882043803878162e+01
3.110000000000253451e+00 6.751568218663447851e+01
3.130000000000253024e+00 6.585858114699389887e+01
3.150000000000252598e+00 6.546651202848893547e+01
3.170000000000252172e+00 6.348897806980338032e+01
3.190000000000251745e+00 6.260892896732551094e+01
3.210000000000251319e+00 6.135282425437391396e+01
3.230000000000250893e+00 6.106113339137587559e+01
3.250000000000250466e+00 6.039956328626723803e+01
3.270000000000250040e+00 5.901098932818449327e+01
3.290000000000249614e+00 5.721309075291098623e+01
3.310000000000249187e+00 5.690068727786822222e+01
3.330000000000248761e+00 5.602790528389387958e+01
3.350000000000248335e+00 5.518211188261445699e+01
3.370000000000247908e+00 5.410149413953418929e+01
3.390000000000247482e+00 5.262111441582965199e+01
3.410000000000247056e+00 5.164783275365424942e+01
3.430000000000246629e+00 5.060998783373944576e+01
3.450000000000246203e+00 4.935512123438855525e+01
3.470000000000245777e+00 4.877210417174851642e+01
3.490000000000245350e+00 4.908507730910565670e+01
3.510000000000244924e+00 4.788578205532949283e+01
3.530000000000244498e+00 4.658084503385794051e+01
3.550000000000244071e+00 4.582854724574429639e+01
3.570000000000243645e+00 4.533682226376890156e+01
3.590000000000243219e+00 4.412126609802746913e+01
3.610000000000242792e+00 4.445952945625349884e+01
3.630000000000242366e+00 4.320964422560795981e+01
3.650000000000241940e+00 4.249376624475247155e+01
3.670000000000241513e+00 4.220475768625794899e+01
3.690000000000241087e+00 4.147955896014109101e+01
3.710000000000240661e+00 4.057778588146597798e+01
3.730000000000240234e+00 3.983995089678967361e+01
3.750000000000239808e+00 3.935014468747343130e+01
3.770000000000239382e+00 3.866115330409861173e+01
3.790000000000238956e+00 3.832847643012481598e+01
3.810000000000238529e+00 3.813458051624835576e+01
3.830000000000238103e+00 3.732741913201181205e+01
3.850000000000237677e+00 3.684637436734016092e+01
3.870000000000237250e+00 3.652918396094617037e+01
3.890000000000236824e+00 3.570627576180429230e+01
3.910000000000236398e+00 3.512212963917379938e+01
3.930000000000235971e+00 3.485900282191526856e+01
3.950000000000235545e+00 3.475751397095694983e+01
3.970000000000235119e+00 3.434839576821089935e+01
3.990000000000234692e+00 3.379774012999856581e+01
4.010000000000234266e+00 3.366905459892351615e+01
4.030000000000233840e+00 3.314911989051081065e+01
4.050000000000233413e+00 3.273961313202073597e+01
4.070000000000232987e+00 3.260588131366637299e+01
4.090000000000232561e+00 3.209751036192587037e+01
4.110000000000232134e+00 3.223320630812919774e+01
4.130000000000231708e+00 3.196918229339018680e+01
4.150000000000231282e+00 3.182033482941327662e+01
4.170000000000230855e+00 3.176446019406914445e+01
4.190000000000230429e+00 3.153173372577061784e+01
4.210000000000230003e+00 3.169588623504351332e+01
4.230000000000229576e+00 3.130213667927800714e+01
4.250000000000229150e+00 3.074658583855430649e+01
4.270000000000228724e+00 3.010960742586739514e+01
4.290000000000228297e+00 3.028969188167089044e+01
4.310000000000227871e+00 2.977484032587148377e+01
4.330000000000227445e+00 2.980926980850334473e+01
4.350000000000227018e+00 3.006723533081714095e+01
4.370000000000226592e+00 2.944959918007423738e+01
4.390000000000226166e+00 2.924932576971665199e+01
4.410000000000225739e+00 2.897997463257137696e+01
4.430000000000225313e+00 2.878123068476701008e+01
4.450000000000224887e+00 2.854600570720450037e+01
4.470000000000224460e+00 2.824055893706557541e+01
4.490000000000224034e+00 2.834022212197465151e+01
4.510000000000223608e+00 2.852465972725366683e+01
4.530000000000223181e+00 2.813765739187952519e+01
4.550000000000222755e+00 2.811331342389602028e+01
4.570000000000222329e+00 2.745917104288930588e+01
4.590000000000221902e+00 2.732153940323901153e+01
4.610000000000221476e+00 2.709038691788531494e+01
4.630000000000221050e+00 2.688163114034389523e+01
4.650000000000220624e+00 2.705761380071822586e+01
4.670000000000220197e+00 2.696092721379857693e+01
4.690000000000219771e+00 2.660508362893541445e+01
4.710000000000219345e+00 2.680531342169060594e+01
4.730000000000218918e+00 2.662440158565287618e+01
4.750000000000218492e+00 2.616065981811640029e+01
4.770000000000218066e+00 2.583416146606102970e+01
4.790000000000217639e+00 2.601652340391906648e+01
4.810000000000217213e+00 2.611642034381127075e+01
4.830000000000216787e+00 2.618506129520393699e+01
4.850000000000216360e+00 2.567742150399768875e+01
4.870000000000215934e+00 2.534425960262104738e+01
4.890000000000215508e+00 2.534504131265017435e+01
4.910000000000215081e+00 2.521531815371399787e+01
4.930000000000214655e+00 2.539384308824228498e+01
4.950000000000214229e+00 2.541532421787563933e+01
4.970000000000213802e+00 2.540340710636134602e+01
4.990000000000213376e+00 2.518449223334029696e+01
5.010000000000212950e+00 2.481088552370759714e+01
5.030000000000212523e+00 2.431821122335950491e+01
5.050000000000212097e+00 2.447205703637926177e+01
5.070000000000211671e+00 2.414629795660502154e+01
5.090000000000211244e+00 2.409994319309057431e+01
5.110000000000210818e+00 2.395277128448545056e+01
5.130000000000210392e+00 2.405609915251473652e+01
5.150000000000209965e+00 2.361338277435123700e+01
5.170000000000209539e+00 2.343123547762330006e+01
5.190000000000209113e+00 2.339113591647365098e+01
5.210000000000208686e+00 2.302912471121259586e+01
5.230000000000208260e+00 2.310423849590208789e+01
5.250000000000207834e+00 2.301560235923926001e+01
5.270000000000207407e+00 2.279480432629788567e+01
5.290000000000206981e+00 2.294190431689761667e+01
5.310000000000206555e+00 2.292102481892960597e+01
5.330000000000206128e+00 2.282148640454677846e+01
5.350000000000205702e+00 2.268555483944425077e+01
5.370000000000205276e+00 2.219294939168232972e+01
5.390000000000204849e+00 2.209561177751117711e+01
5.410000000000204423e+00 2.194222235998715220e+01
5.430000000000203997e+00 2.183460139388570198e+01
5.450000000000203570e+00 2.160734618089652415e+01
5.470000000000203144e+00 2.143063333192490916e+01
5.490000000000202718e+00 2.169593318140499960e+01
5.510000000000202292e+00 2.140541084947950878e+01
5.530000000000201865e+00 2.109105085846899996e+01
5.550000000000201439e+00 2.137285088179828563e+01
5.570000000000201013e+00 2.119487521428894183e+01
5.590000000000200586e+00 2.111283810713505460e+01
5.610000000000200160e+00 2.109235879442017136e+01
5.630000000000199734e+00 2.076431182830864230e+01
5.650000000000199307e+00 2.064715066570173718e+01
5.670000000000198881e+00 2.008158774530325630e+01
5.690000000000198455e+00 1.984873798389184429e+01
5.710000000000198028e+00 1.940258606451869383e+01
5.730000000000197602e+00 1.930600473154332875e+01
5.750000000000197176e+00 1.952521503791479418e+01
5.770000000000196749e+00 1.915770335581336070e+01
5.790000000000196323e+00 1.894231533751662511e+01
5.810000000000195897e+00 1.851586652075271644e+01
5.830000000000195470e+00 1.843446769057067414e+01
5.850000000000195044e+00 1.807741154852609000e+01
5.870000000000194618e+00 1.792150350595692743e+01
5.890000000000194191e+00 1.768582608404129175e+01
5.910000000000193765e+00 1.761962936807846702e+01
5.930000000000193339e+00 1.731322286516315145e+01
5.950000000000192912e+00 1.742147570288468117e+01
5.970000000000192486e+00 1.701428585963899565e+01
5.990000000000192060e+00 1.715724301033250399e+01
6.010000000000191633e+00 1.665272333394503335e+01
6.030000000000191207e+00 1.669674409201582677e+01
6.050000000000190781e+00 1.624392973295953624e+01
6.070000000000190354e+00 1.606947031472029508e+01
6.090000000000189928e+00 1.580041014368061170e+01
6.110000000000189502e+00 1.583477575360010192e+01
6.130000000000189075e+00 1.591850894106770298e+01
6.150000000000188649e+00 1.524140298344949507e+01
6.170000000000188223e+00 1.509923615796567731e+01
6.190000000000187796e+00 1.485429306726762633e+01
6.210000000000187370e+00 1.466333338574838052e+01
6.230000000000186944e+00 1.410164744489662603e+01
6.250000000000186517e+00 1.393750902473720465e+01
6.270000000000186091e+00 1.362476344269536987e+01
6.290000000000185665e+00 1.336029941063368653e+01
6.310000000000185238e+00 1.343834504182400025e+01
6.330000000000184812e+00 1.284471147857196627e+01
6.350000000000184386e+00 1.281018404299831914e+01
6.370000000000183960e+00 1.242957979707542648e+01
6.390000000000183533e+00 1.209739672864154159e+01
6.410000000000183107e+00 1.191188435808127011e+01
6.430000000000182681e+00 1.188247074115953161e+01
6.450000000000182254e+00 1.165754432860151013e+01
6.470000000000181828e+00 1.124608740878490565e+01
6.490000000000181402e+00 1.092342050125238373e+01
6.510000000000180975e+00 1.078983076933388041e+01
6.530000000000180549e+00 1.038226508586576280e+01
6.550000000000180123e+00 1.019872921090143159e+01
6.570000000000179696e+00 1.003470325976948985e+01
6.590000000000179270e+00 9.874925551087606834e+00
6.610000000000178844e+00 9.638433610998760059e+00
6.630000000000178417e+00 9.456126228996534877e+00
6.650000000000177991e+00 9.087136413274118141e+00
6.670000000000177565e+00 8.932686874280419076e+00
6.690000000000177138e+00 8.586386798248076602e+00
6.710000000000176712e+00 8.479035501375285833e+00
6.730000000000176286e+00 8.237159346169185881e+00
6.750000000000175859e+00 7.810526160699191145e+00
6.770000000000175433e+00 7.714443557369630611e+00
6.790000000000175007e+00 7.464000815435034575e+00
6.810000000000174580e+00 7.304007816491787430e+00
6.830000000000174154e+00 7.187157577694983424e+00
6.850000000000173728e+00 7.074773993974077690e+00
6.870000000000173301e+00 6.722679708905652696e+00
6.890000000000172875e+00 6.572203567411173175e+00
6.910000000000172449e+00 6.477593825754323298e+00
6.930000000000172022e+00 6.427809915838740729e+00
6.950000000000171596e+00 6.306338610987214821e+00
6.970000000000171170e+00 6.253458096836815194e+00
6.990000000000170743e+00 5.824361846992828440e+00
7.010000000000170317e+00 5.711031031796024671e+00
7.030000000000169891e+00 5.497948072815637133e+00
7.050000000000169464e+00 5.338833342756534428e+00
7.070000000000169038e+00 5.316024549703489477e+00
7.090000000000168612e+00 4.983258502969680315e+00
7.110000000000168185e+00 4.988471746974668442e+00
7.130000000000167759e+00 4.772220156541612468e+00
7.150000000000167333e+00 4.608950257483689583e+00
7.170000000000166906e+00 4.564253630922988414e+00
7.190000000000166480e+00 4.422383314241170815e+00
7.210000000000166054e+00 4.273317288441275785e+00
7.230000000000165628e+00 4.195056269514540581e+00
7.250000000000165201e+00 4.120644092581875029e+00
7.270000000000164775e+00 3.995147567638417385e+00
7.290000000000164349e+00 3.889019259246252691e+00
7.310000000000163922e+00 3.909882664540300645e+00
7.330000000000163496e+00 3.689323070264294291e+00
7.350000000000163070e+00 3.625772554095698652e+00
7.370000000000162643e+00 3.625881198378192671e+00
7.390000000000162217e+00 3.696927236249402782e+00
7.410000000000161791e+00 3.592355412973015749e+00
7.430000000000161364e+00 3.797556541524356177e+00
7.450000000000160938e+00 3.583157729123918500e+00
7.470000000000160512e+00 3.264508319125019487e+00
7.490000000000160085e+00 3.259579546793198279e+00
7.510000000000159659e+00 3.139153169505290997e+00
7.530000000000159233e+00 3.150242386894436475e+00
7.550000000000158806e+00 3.075933219453261813e+00
7.570000000000158380e+00 2.970152791134536674e+00
7.590000000000157954e+00 2.949126963816644409e+00
7.610000000000157527e+00 2.903551713380334576e+00
7.630000000000157101e+00 2.876547861492592784e+00
7.650000000000156675e+00 2.782781327087178180e+00
7.670000000000156248e+00 2.776615451171660087e+00
7.690000000000155822e+00 2.756542218689119306e+00
7.710000000000155396e+00 2.733440517375246959e+00
7.730000000000154969e+00 2.637093961781932894e+00
7.750000000000154543e+00 2.639010702111062479e+00
7.770000000000154117e+00 2.605337239922776771e+00
7.790000000000153690e+00 2.565997703117177231e+00
7.810000000000153264e+00 2.648523144730531520e+00
7.830000000000152838e+00 2.577838998335382215e+00
7.850000000000152411e+00 2.675170019628295037e+00
7.870000000000151985e+00 2.588872370030805836e+00
7.890000000000151559e+00 2.436388085285711824e+00
7.910000000000151132e+00 2.401794411433957332e+00
7.930000000000150706e+00 2.330252851092859956e+00
7.950000000000150280e+00 2.301743042479668322e+00
7.970000000000149853e+00 2.251699151119929798e+00
