# Redshift		Merger Rate Density [Gpc^-3yr^-1]
1.000000000031931770e-02 1.831510189065633938e+02
3.000000000031888964e-02 1.915741814927188216e+02
5.000000000031846331e-02 1.989712233497085379e+02
7.000000000031804392e-02 2.083856360389385429e+02
9.000000000031761760e-02 2.157018317803383809e+02
1.100000000003171913e-01 2.256567606362814047e+02
1.300000000003167511e-01 2.355760487330696549e+02
1.500000000003163247e-01 2.457583223664523473e+02
1.700000000003158984e-01 2.535977209021150713e+02
1.900000000003154721e-01 2.658811358007237118e+02
2.100000000003150458e-01 2.760296026293203795e+02
2.300000000003146194e-01 2.848231282843332792e+02
2.500000000003141931e-01 2.977373401544351736e+02
2.700000000003137668e-01 3.086983306693825853e+02
2.900000000003133405e-01 3.186190944631350703e+02
3.100000000003129141e-01 3.311398883669307338e+02
3.300000000003124878e-01 3.417819342226562185e+02
3.500000000003120615e-01 3.522767778377152013e+02
3.700000000003116352e-01 3.660729191176421295e+02
3.900000000003112088e-01 3.772698010834292859e+02
4.100000000003107825e-01 3.896484363483581888e+02
4.300000000003103562e-01 4.012937761415518594e+02
4.500000000003099299e-01 4.143574477765315009e+02
4.700000000003095035e-01 4.272630921863585058e+02
4.900000000003090772e-01 4.377634588160027533e+02
5.100000000003086509e-01 4.557135987050462518e+02
5.300000000003082246e-01 4.636872874060470622e+02
5.500000000003077982e-01 4.792989893641496906e+02
5.700000000003073719e-01 4.916257238453146670e+02
5.900000000003069456e-01 5.052978678313515388e+02
6.100000000003065193e-01 5.176709907714055134e+02
6.300000000003060929e-01 5.290907536771726427e+02
6.500000000003056666e-01 5.462591641798918545e+02
6.700000000003052403e-01 5.594377203188570320e+02
6.900000000003048140e-01 5.754145308352511847e+02
7.100000000003043876e-01 5.863345931386355687e+02
7.300000000003039613e-01 6.003048336729327730e+02
7.500000000003035350e-01 6.163597841150910881e+02
7.700000000003031086e-01 6.268497042339630525e+02
7.900000000003026823e-01 6.418857475282982250e+02
8.100000000003022560e-01 6.530581159147670860e+02
8.300000000003018297e-01 6.669516565882166788e+02
8.500000000003014033e-01 6.856153042780662190e+02
8.700000000003009770e-01 6.893132209412605107e+02
8.900000000003005507e-01 7.097984133379289915e+02
9.100000000003001244e-01 7.167054567700962480e+02
9.300000000002996980e-01 7.313626296382810779e+02
9.500000000002992717e-01 7.459508243423355225e+02
9.700000000002988454e-01 7.574205436821430339e+02
9.900000000002984191e-01 7.650317240981408986e+02
1.010000000000297993e+00 7.756543034002590957e+02
1.030000000000297566e+00 7.922966936126731525e+02
1.050000000000297140e+00 7.974940324009735377e+02
1.070000000000296714e+00 8.140663578117904535e+02
1.090000000000296287e+00 8.222970444764375770e+02
1.110000000000295861e+00 8.275997043282625327e+02
1.130000000000295435e+00 8.353515393659148458e+02
1.150000000000295008e+00 8.463448116299624644e+02
1.170000000000294582e+00 8.538665914128098393e+02
1.190000000000294156e+00 8.619284271545384399e+02
1.210000000000293729e+00 8.713365855874169483e+02
1.230000000000293303e+00 8.741138265274536252e+02
1.250000000000292877e+00 8.815382187605006266e+02
1.270000000000292451e+00 8.909019462884914446e+02
1.290000000000292024e+00 8.865663693843600868e+02
1.310000000000291598e+00 8.983426213455662719e+02
1.330000000000291172e+00 8.981515735363016120e+02
1.350000000000290745e+00 9.018959171430693686e+02
1.370000000000290319e+00 9.103660650178412652e+02
1.390000000000289893e+00 9.109363174892577035e+02
1.410000000000289466e+00 9.090142146718675349e+02
1.430000000000289040e+00 9.128297768722711680e+02
1.450000000000288614e+00 9.124094240945388492e+02
1.470000000000288187e+00 9.177553656179288737e+02
1.490000000000287761e+00 9.130107147428096823e+02
1.510000000000287335e+00 9.173197615952542492e+02
1.530000000000286908e+00 9.140501188655902070e+02
1.550000000000286482e+00 9.133862762926950154e+02
1.570000000000286056e+00 9.152968717740396869e+02
1.590000000000285629e+00 9.058371003686247604e+02
1.610000000000285203e+00 9.061644434103003505e+02
1.630000000000284777e+00 9.022149247640039675e+02
1.650000000000284350e+00 9.049134065284708868e+02
1.670000000000283924e+00 8.947906685408651128e+02
1.690000000000283498e+00 8.947262852242050712e+02
1.710000000000283071e+00 8.951735888177929610e+02
1.730000000000282645e+00 8.843385952001755186e+02
1.750000000000282219e+00 8.859012646559652921e+02
1.770000000000281792e+00 8.722510697379084377e+02
1.790000000000281366e+00 8.766722429070911176e+02
1.810000000000280940e+00 8.647231874021529165e+02
1.830000000000280513e+00 8.564308458284906465e+02
1.850000000000280087e+00 8.581602378763896013e+02
1.870000000000279661e+00 8.478577112293165783e+02
1.890000000000279234e+00 8.413478628386333185e+02
1.910000000000278808e+00 8.324475257853155199e+02
1.930000000000278382e+00 8.273989307748817055e+02
1.950000000000277955e+00 8.228035554038484634e+02
1.970000000000277529e+00 8.134780919651952900e+02
1.990000000000277103e+00 8.056442929725880049e+02
2.010000000000276899e+00 8.000879169099615638e+02
2.030000000000276472e+00 7.914206173509056725e+02
2.050000000000276046e+00 7.776497262420858760e+02
2.070000000000275620e+00 7.764619597007271068e+02
2.090000000000275193e+00 7.687342967940338667e+02
2.110000000000274767e+00 7.558283527668623947e+02
2.130000000000274341e+00 7.487675419437108530e+02
2.150000000000273914e+00 7.421755346338733261e+02
2.170000000000273488e+00 7.286671224651880721e+02
2.190000000000273062e+00 7.245769555013800982e+02
2.210000000000272635e+00 7.145213537165332127e+02
2.230000000000272209e+00 7.059324391697233523e+02
2.250000000000271783e+00 6.983918311230253266e+02
2.270000000000271356e+00 6.882139750701766161e+02
2.290000000000270930e+00 6.808677576089127115e+02
2.310000000000270504e+00 6.686802265405799517e+02
2.330000000000270077e+00 6.655067773166944107e+02
2.350000000000269651e+00 6.551281790769493227e+02
2.370000000000269225e+00 6.412811924084136308e+02
2.390000000000268798e+00 6.375171005264104451e+02
2.410000000000268372e+00 6.257078669629130445e+02
2.430000000000267946e+00 6.202148902881637014e+02
2.450000000000267519e+00 6.067006392082088269e+02
2.470000000000267093e+00 6.002883751096831020e+02
2.490000000000266667e+00 5.918921450122085162e+02
2.510000000000266240e+00 5.872068813598812085e+02
2.530000000000265814e+00 5.702281034920023330e+02
2.550000000000265388e+00 5.711772639761651362e+02
2.570000000000264961e+00 5.552923758583532390e+02
2.590000000000264535e+00 5.489482439457082137e+02
2.610000000000264109e+00 5.387194067808014779e+02
2.630000000000263682e+00 5.343931245869599707e+02
2.650000000000263256e+00 5.255385264742569689e+02
2.670000000000262830e+00 5.164036533659015049e+02
2.690000000000262403e+00 5.070060478962347474e+02
2.710000000000261977e+00 4.988994593840072866e+02
2.730000000000261551e+00 4.911782623501065359e+02
2.750000000000261124e+00 4.823343353534846187e+02
2.770000000000260698e+00 4.760737136841599977e+02
2.790000000000260272e+00 4.663789892773931456e+02
2.810000000000259845e+00 4.583537749988990981e+02
2.830000000000259419e+00 4.552973930754267258e+02
2.850000000000258993e+00 4.474166402497544368e+02
2.870000000000258567e+00 4.377881201152083577e+02
2.890000000000258140e+00 4.330355886805573391e+02
2.910000000000257714e+00 4.250153344960584718e+02
2.930000000000257288e+00 4.178613620800737749e+02
2.950000000000256861e+00 4.073489029974207938e+02
2.970000000000256435e+00 4.002061332126997399e+02
2.990000000000256009e+00 3.913155046074634242e+02
3.010000000000255582e+00 3.891298587620560738e+02
3.030000000000255156e+00 3.834429927878395574e+02
3.050000000000254730e+00 3.768859059500528588e+02
3.070000000000254303e+00 3.689520421814569318e+02
3.090000000000253877e+00 3.635446051161999321e+02
3.110000000000253451e+00 3.557558895484367554e+02
3.130000000000253024e+00 3.478718872427567703e+02
3.150000000000252598e+00 3.437658067419417875e+02
3.170000000000252172e+00 3.376813321446057330e+02
3.190000000000251745e+00 3.328206172514535410e+02
3.210000000000251319e+00 3.249066998449262655e+02
3.230000000000250893e+00 3.202413101204790564e+02
3.250000000000250466e+00 3.132366968667213882e+02
3.270000000000250040e+00 3.063864269381911072e+02
3.290000000000249614e+00 3.017727732183125227e+02
3.310000000000249187e+00 2.972285941444690707e+02
3.330000000000248761e+00 2.926286465207269316e+02
3.350000000000248335e+00 2.867857072645537642e+02
3.370000000000247908e+00 2.830217283323472657e+02
3.390000000000247482e+00 2.740019844746898912e+02
3.410000000000247056e+00 2.706783490159234589e+02
3.430000000000246629e+00 2.663244643103853377e+02
3.450000000000246203e+00 2.602287795209989554e+02
3.470000000000245777e+00 2.559271114264593336e+02
3.490000000000245350e+00 2.519383480141573273e+02
3.510000000000244924e+00 2.461402394230940445e+02
3.530000000000244498e+00 2.412547625416700328e+02
3.550000000000244071e+00 2.396923349231483371e+02
3.570000000000243645e+00 2.321593447703848483e+02
3.590000000000243219e+00 2.277954335343983985e+02
3.610000000000242792e+00 2.261407800185779138e+02
3.630000000000242366e+00 2.204846121799642447e+02
3.650000000000241940e+00 2.175020427781583408e+02
3.670000000000241513e+00 2.130212498707082318e+02
3.690000000000241087e+00 2.096792930962156731e+02
3.710000000000240661e+00 2.038810208503645640e+02
3.730000000000240234e+00 2.017455136943586922e+02
3.750000000000239808e+00 1.991211628603138593e+02
3.770000000000239382e+00 1.946359526465452063e+02
3.790000000000238956e+00 1.905464119769782201e+02
3.810000000000238529e+00 1.891218206719542536e+02
3.830000000000238103e+00 1.843027072085166651e+02
3.850000000000237677e+00 1.804667934352825682e+02
3.870000000000237250e+00 1.785569730218054758e+02
3.890000000000236824e+00 1.745101007408484293e+02
3.910000000000236398e+00 1.728141612094859738e+02
3.930000000000235971e+00 1.691423526466350893e+02
3.950000000000235545e+00 1.665335756745043625e+02
3.970000000000235119e+00 1.621724337369406044e+02
3.990000000000234692e+00 1.613402128299679532e+02
4.010000000000234266e+00 1.561552699883858963e+02
4.030000000000233840e+00 1.557509763584102132e+02
4.050000000000233413e+00 1.532134306632491700e+02
4.070000000000232987e+00 1.503041694703991595e+02
4.090000000000232561e+00 1.473504666963245882e+02
4.110000000000232134e+00 1.449249240912224934e+02
4.130000000000231708e+00 1.426446543499575625e+02
4.150000000000231282e+00 1.413839685291091826e+02
4.170000000000230855e+00 1.373717978910673310e+02
4.190000000000230429e+00 1.367666899407753363e+02
4.210000000000230003e+00 1.335298634880118414e+02
4.230000000000229576e+00 1.316945234974933499e+02
4.250000000000229150e+00 1.294102607442208921e+02
4.270000000000228724e+00 1.278885033602682171e+02
4.290000000000228297e+00 1.261073767179533576e+02
4.310000000000227871e+00 1.234883881127742313e+02
4.330000000000227445e+00 1.212941074762864559e+02
4.350000000000227018e+00 1.197672689681548093e+02
4.370000000000226592e+00 1.181023315694698539e+02
4.390000000000226166e+00 1.162048936763334837e+02
4.410000000000225739e+00 1.147603857828347884e+02
4.430000000000225313e+00 1.136134257183830840e+02
4.450000000000224887e+00 1.112310163919329682e+02
4.470000000000224460e+00 1.090895640433238896e+02
4.490000000000224034e+00 1.074820743580235956e+02
4.510000000000223608e+00 1.068415577017730271e+02
4.530000000000223181e+00 1.045645797755598636e+02
4.550000000000222755e+00 1.036198932139948852e+02
4.570000000000222329e+00 1.013093294269303044e+02
4.590000000000221902e+00 1.008176576561510416e+02
4.610000000000221476e+00 9.900764572968739685e+01
4.630000000000221050e+00 9.882587172882512050e+01
4.650000000000220624e+00 9.611128446558730332e+01
4.670000000000220197e+00 9.482407784525082661e+01
4.690000000000219771e+00 9.420990935714620207e+01
4.710000000000219345e+00 9.254233520242125621e+01
4.730000000000218918e+00 9.174553037187081372e+01
4.750000000000218492e+00 9.094256862590445678e+01
4.770000000000218066e+00 9.006967644889671476e+01
4.790000000000217639e+00 8.865740256054141355e+01
4.810000000000217213e+00 8.744899961368838603e+01
4.830000000000216787e+00 8.676859926501553844e+01
4.850000000000216360e+00 8.579731323102690510e+01
4.870000000000215934e+00 8.554996215309738261e+01
4.890000000000215508e+00 8.402789010995023489e+01
4.910000000000215081e+00 8.307798598253430100e+01
4.930000000000214655e+00 8.302590456034076283e+01
4.950000000000214229e+00 8.120179190312751416e+01
4.970000000000213802e+00 8.150354928201247162e+01
4.990000000000213376e+00 8.041216695570699358e+01
5.010000000000212950e+00 7.932927390769150122e+01
5.030000000000212523e+00 7.883839822597609270e+01
5.050000000000212097e+00 7.821197147279063699e+01
5.070000000000211671e+00 7.762328891670070163e+01
5.090000000000211244e+00 7.664949368969747923e+01
5.110000000000210818e+00 7.636444717426249440e+01
5.130000000000210392e+00 7.652312885164697320e+01
5.150000000000209965e+00 7.507978271787307278e+01
5.170000000000209539e+00 7.475097366513170982e+01
5.190000000000209113e+00 7.413893583707155699e+01
5.210000000000208686e+00 7.379646718335183664e+01
5.230000000000208260e+00 7.315550688327343209e+01
5.250000000000207834e+00 7.223381932796758065e+01
5.270000000000207407e+00 7.184472746841505852e+01
5.290000000000206981e+00 7.155632797199768902e+01
5.310000000000206555e+00 7.118340851236870037e+01
5.330000000000206128e+00 7.077079166603809313e+01
5.350000000000205702e+00 7.009937151685824119e+01
5.370000000000205276e+00 6.938860150837805918e+01
5.390000000000204849e+00 6.961797077474061268e+01
5.410000000000204423e+00 6.878952747181492100e+01
5.430000000000203997e+00 6.880180850547257876e+01
5.450000000000203570e+00 6.793144887694587908e+01
5.470000000000203144e+00 6.788449074533217242e+01
5.490000000000202718e+00 6.769535396365439794e+01
5.510000000000202292e+00 6.749032360574000222e+01
5.530000000000201865e+00 6.690550167492256151e+01
5.550000000000201439e+00 6.600131980383477526e+01
5.570000000000201013e+00 6.533416599460940688e+01
5.590000000000200586e+00 6.513209473784129955e+01
5.610000000000200160e+00 6.565598789119117384e+01
5.630000000000199734e+00 6.475661702857898661e+01
5.650000000000199307e+00 6.402375382096300882e+01
5.670000000000198881e+00 6.348528008437560999e+01
5.690000000000198455e+00 6.297829420540327305e+01
5.710000000000198028e+00 6.273025875427422449e+01
5.730000000000197602e+00 6.177981822455794969e+01
5.750000000000197176e+00 6.148897729203255125e+01
5.770000000000196749e+00 6.108236335739149325e+01
5.790000000000196323e+00 6.080221271158478658e+01
5.810000000000195897e+00 5.987009297527438179e+01
5.830000000000195470e+00 5.992753073681443254e+01
5.850000000000195044e+00 5.897568230382670151e+01
5.870000000000194618e+00 5.857429577535322807e+01
5.890000000000194191e+00 5.891302688798549525e+01
5.910000000000193765e+00 5.765585421389079812e+01
5.930000000000193339e+00 5.731437647307034666e+01
5.950000000000192912e+00 5.731021526661590570e+01
5.970000000000192486e+00 5.619292015287550868e+01
5.990000000000192060e+00 5.566486168429165815e+01
6.010000000000191633e+00 5.587966407548283598e+01
6.030000000000191207e+00 5.490168625875963215e+01
6.050000000000190781e+00 5.461072686522318520e+01
6.070000000000190354e+00 5.395252847167991916e+01
6.090000000000189928e+00 5.365030757413475726e+01
6.110000000000189502e+00 5.238977307399302674e+01
6.130000000000189075e+00 5.233660784119301468e+01
6.150000000000188649e+00 5.171832814491681773e+01
6.170000000000188223e+00 5.144989449405704818e+01
6.190000000000187796e+00 5.164045403340634266e+01
6.210000000000187370e+00 5.014343931082499495e+01
6.230000000000186944e+00 4.955882161108102224e+01
6.250000000000186517e+00 4.938797930499227817e+01
6.270000000000186091e+00 4.893664857497060439e+01
6.290000000000185665e+00 4.862661929828030338e+01
6.310000000000185238e+00 4.772616148113750256e+01
6.330000000000184812e+00 4.668999215630462629e+01
6.350000000000184386e+00 4.732358908876838655e+01
6.370000000000183960e+00 4.633915914994516072e+01
6.390000000000183533e+00 4.596371691945044091e+01
6.410000000000183107e+00 4.548891774358100548e+01
6.430000000000182681e+00 4.509737544297794898e+01
6.450000000000182254e+00 4.467124471687663601e+01
6.470000000000181828e+00 4.408256559039678990e+01
6.490000000000181402e+00 4.369703687383209001e+01
6.510000000000180975e+00 4.290225910700432621e+01
6.530000000000180549e+00 4.312627138948386118e+01
6.550000000000180123e+00 4.254871320361796450e+01
6.570000000000179696e+00 4.208386374370594751e+01
6.590000000000179270e+00 4.168386646427639874e+01
6.610000000000178844e+00 4.127700725625893341e+01
6.630000000000178417e+00 4.066855757444095332e+01
6.650000000000177991e+00 4.058907883067201539e+01
6.670000000000177565e+00 3.988902615223268810e+01
6.690000000000177138e+00 3.995731169104652736e+01
6.710000000000176712e+00 3.964734422486467480e+01
6.730000000000176286e+00 3.963722929630075242e+01
6.750000000000175859e+00 3.843751945463291975e+01
6.770000000000175433e+00 3.827220308693183881e+01
6.790000000000175007e+00 3.813745725492005079e+01
6.810000000000174580e+00 3.812777848242883039e+01
6.830000000000174154e+00 3.706996105469659142e+01
6.850000000000173728e+00 3.720439912000147586e+01
6.870000000000173301e+00 3.671494826172862957e+01
6.890000000000172875e+00 3.655245835224583573e+01
6.910000000000172449e+00 3.579108838776011225e+01
6.930000000000172022e+00 3.594026262257934690e+01
6.950000000000171596e+00 3.535764789507293671e+01
6.970000000000171170e+00 3.541154740981327365e+01
6.990000000000170743e+00 3.511540024820923378e+01
7.010000000000170317e+00 3.504197927410098146e+01
7.030000000000169891e+00 3.437616666555245359e+01
7.050000000000169464e+00 3.404676289296583747e+01
7.070000000000169038e+00 3.404311557470428795e+01
7.090000000000168612e+00 3.406936519719884870e+01
7.110000000000168185e+00 3.379778694962622865e+01
7.130000000000167759e+00 3.343419739360948029e+01
7.150000000000167333e+00 3.358412088042126697e+01
7.170000000000166906e+00 3.337376801188711539e+01
7.190000000000166480e+00 3.302177423045436910e+01
7.210000000000166054e+00 3.313978687016624747e+01
7.230000000000165628e+00 3.292075708715732674e+01
7.250000000000165201e+00 3.298614643657339940e+01
7.270000000000164775e+00 3.271441877551202282e+01
7.290000000000164349e+00 3.239144910343755868e+01
7.310000000000163922e+00 3.251540629713426256e+01
7.330000000000163496e+00 3.228821347557932597e+01
7.350000000000163070e+00 3.244179076527399985e+01
7.370000000000162643e+00 3.204096437168150402e+01
7.390000000000162217e+00 3.216082015044934650e+01
7.410000000000161791e+00 3.191969110520154729e+01
7.430000000000161364e+00 3.199256438638413158e+01
7.450000000000160938e+00 3.175740081380532587e+01
7.470000000000160512e+00 3.198892020381399703e+01
7.490000000000160085e+00 3.189879811150647626e+01
7.510000000000159659e+00 3.185191638841155637e+01
7.530000000000159233e+00 3.199598905424472051e+01
7.550000000000158806e+00 3.209307944758075593e+01
7.570000000000158380e+00 3.211224876736498857e+01
7.590000000000157954e+00 3.188045837736319399e+01
7.610000000000157527e+00 3.219789612118167810e+01
7.630000000000157101e+00 3.220380409633884966e+01
7.650000000000156675e+00 3.226111701832316925e+01
7.670000000000156248e+00 3.235555667785796174e+01
7.690000000000155822e+00 3.294455775001603115e+01
7.710000000000155396e+00 3.288945473281557241e+01
7.730000000000154969e+00 3.302384866046322998e+01
7.750000000000154543e+00 3.280515447887088953e+01
7.770000000000154117e+00 3.336428410302841741e+01
7.790000000000153690e+00 3.307052083749098159e+01
7.810000000000153264e+00 3.340185412878335569e+01
7.830000000000152838e+00 3.388948079322985762e+01
7.850000000000152411e+00 3.404598039666576170e+01
7.870000000000151985e+00 3.406115811013866335e+01
7.890000000000151559e+00 3.384239385858817428e+01
7.910000000000151132e+00 3.447179722019628656e+01
7.930000000000150706e+00 3.451557914076902733e+01
7.950000000000150280e+00 3.468008390354364678e+01
7.970000000000149853e+00 3.508317259817037836e+01
