# Redshift		Merger Rate Density [Gpc^-3yr^-1]
1.000000000031931770e-02 1.226497588888915402e+02
3.000000000031888964e-02 1.264946817455006141e+02
5.000000000031846331e-02 1.317472920344465308e+02
7.000000000031804392e-02 1.355306960295711747e+02
9.000000000031761760e-02 1.400401003530564878e+02
1.100000000003171913e-01 1.434199378010637247e+02
1.300000000003167511e-01 1.491113718175516851e+02
1.500000000003163247e-01 1.545808418933245889e+02
1.700000000003158984e-01 1.588087768124538002e+02
1.900000000003154721e-01 1.638868644600729567e+02
2.100000000003150458e-01 1.698367310514785515e+02
2.300000000003146194e-01 1.735598207459197511e+02
2.500000000003141931e-01 1.789314929484140464e+02
2.700000000003137668e-01 1.840945650778084257e+02
2.900000000003133405e-01 1.898066083262574750e+02
3.100000000003129141e-01 1.933901632356596281e+02
3.300000000003124878e-01 1.988106701323847858e+02
3.500000000003120615e-01 2.046656887366887645e+02
3.700000000003116352e-01 2.094175147482833665e+02
3.900000000003112088e-01 2.158938674913406999e+02
4.100000000003107825e-01 2.208895969116536264e+02
4.300000000003103562e-01 2.258507832937855824e+02
4.500000000003099299e-01 2.317055946354704759e+02
4.700000000003095035e-01 2.380798197849659630e+02
4.900000000003090772e-01 2.426517976662175897e+02
5.100000000003086509e-01 2.471484144521730855e+02
5.300000000003082246e-01 2.532210824945962031e+02
5.500000000003077982e-01 2.580315622685631070e+02
5.700000000003073719e-01 2.628480826503937919e+02
5.900000000003069456e-01 2.702649306221749725e+02
6.100000000003065193e-01 2.769424581293801566e+02
6.300000000003060929e-01 2.813969834326443333e+02
6.500000000003056666e-01 2.866982806814861533e+02
6.700000000003052403e-01 2.936734922984114178e+02
6.900000000003048140e-01 3.001982753915228272e+02
7.100000000003043876e-01 3.054657434065263146e+02
7.300000000003039613e-01 3.135638806073050660e+02
7.500000000003035350e-01 3.180271073205695416e+02
7.700000000003031086e-01 3.258338177808305431e+02
7.900000000003026823e-01 3.303291082905205371e+02
8.100000000003022560e-01 3.389520163369408010e+02
8.300000000003018297e-01 3.451827427240302200e+02
8.500000000003014033e-01 3.511194820289753693e+02
8.700000000003009770e-01 3.592085735592727360e+02
8.900000000003005507e-01 3.647816304399471505e+02
9.100000000003001244e-01 3.717944734162284703e+02
9.300000000002996980e-01 3.792562555932012742e+02
9.500000000002992717e-01 3.853296905300724688e+02
9.700000000002988454e-01 3.928225446821121523e+02
9.900000000002984191e-01 3.995687072894647258e+02
1.010000000000297993e+00 4.065135581297869862e+02
1.030000000000297566e+00 4.162462357354631308e+02
1.050000000000297140e+00 4.233993145668989087e+02
1.070000000000296714e+00 4.309237585364472807e+02
1.090000000000296287e+00 4.370869482135164503e+02
1.110000000000295861e+00 4.459473932228345348e+02
1.130000000000295435e+00 4.515927258341806692e+02
1.150000000000295008e+00 4.605068746806998092e+02
1.170000000000294582e+00 4.680177410755256346e+02
1.190000000000294156e+00 4.746036684405045776e+02
1.210000000000293729e+00 4.837468126516011466e+02
1.230000000000293303e+00 4.891849472742042053e+02
1.250000000000292877e+00 4.976769877758782172e+02
1.270000000000292451e+00 5.025946330131427544e+02
1.290000000000292024e+00 5.131070239048466419e+02
1.310000000000291598e+00 5.185202395563476330e+02
1.330000000000291172e+00 5.259415806029734313e+02
1.350000000000290745e+00 5.322649442225962275e+02
1.370000000000290319e+00 5.401180111424768029e+02
1.390000000000289893e+00 5.475748947109830169e+02
1.410000000000289466e+00 5.525437148652533779e+02
1.430000000000289040e+00 5.605164778620053312e+02
1.450000000000288614e+00 5.677609964759454897e+02
1.470000000000288187e+00 5.765912364756836723e+02
1.490000000000287761e+00 5.825661226519657703e+02
1.510000000000287335e+00 5.888791693200198551e+02
1.530000000000286908e+00 5.963554441184472807e+02
1.550000000000286482e+00 6.028867965546978667e+02
1.570000000000286056e+00 6.123652680202366128e+02
1.590000000000285629e+00 6.181221169435863203e+02
1.610000000000285203e+00 6.259002308536952341e+02
1.630000000000284777e+00 6.336711248814589226e+02
1.650000000000284350e+00 6.306197799621477316e+02
1.670000000000283924e+00 6.345802923617325177e+02
1.690000000000283498e+00 6.318138119912217689e+02
1.710000000000283071e+00 6.281423734313656269e+02
1.730000000000282645e+00 6.286790613790861926e+02
1.750000000000282219e+00 6.323974304135083457e+02
1.770000000000281792e+00 6.337900995246508273e+02
1.790000000000281366e+00 6.352919138646864212e+02
1.810000000000280940e+00 6.365243600198641616e+02
1.830000000000280513e+00 6.375258060140553198e+02
1.850000000000280087e+00 6.374634343580472660e+02
1.870000000000279661e+00 6.396826783635250422e+02
1.890000000000279234e+00 6.394429445104725573e+02
1.910000000000278808e+00 6.387905190387572247e+02
1.930000000000278382e+00 6.404018322728038584e+02
1.950000000000277955e+00 6.384795002923148104e+02
1.970000000000277529e+00 6.391018374964377244e+02
1.990000000000277103e+00 6.395578305009338465e+02
2.010000000000276899e+00 6.385303038706032339e+02
2.030000000000276472e+00 6.365906425789007699e+02
2.050000000000276046e+00 6.376001692848381026e+02
2.070000000000275620e+00 6.341567189064862760e+02
2.090000000000275193e+00 6.333691134338248503e+02
2.110000000000274767e+00 6.283026669265224200e+02
2.130000000000274341e+00 6.267103974436953422e+02
2.150000000000273914e+00 6.253870764649939247e+02
2.170000000000273488e+00 6.235780296694453000e+02
2.190000000000273062e+00 6.202351019781466448e+02
2.210000000000272635e+00 6.168337611842073329e+02
2.230000000000272209e+00 6.141096506356992677e+02
2.250000000000271783e+00 6.089122760666476779e+02
2.270000000000271356e+00 6.064109177971946565e+02
2.290000000000270930e+00 6.014039015845022504e+02
2.310000000000270504e+00 6.004988935107195402e+02
2.330000000000270077e+00 5.931939218928139326e+02
2.350000000000269651e+00 5.902852152558905345e+02
2.370000000000269225e+00 5.854969958495540823e+02
2.390000000000268798e+00 5.828181337148658940e+02
2.410000000000268372e+00 5.793660826001676014e+02
2.430000000000267946e+00 5.747986479378301965e+02
2.450000000000267519e+00 5.698532798561649315e+02
2.470000000000267093e+00 5.647560202677518646e+02
2.490000000000266667e+00 5.593172018650055861e+02
2.510000000000266240e+00 5.557784240631625607e+02
2.530000000000265814e+00 5.512538436146782033e+02
2.550000000000265388e+00 5.460284868968992669e+02
2.570000000000264961e+00 5.417305329920875465e+02
2.590000000000264535e+00 5.355676607495649932e+02
2.610000000000264109e+00 5.307255570271505576e+02
2.630000000000263682e+00 5.269856551445413970e+02
2.650000000000263256e+00 5.207608987697080920e+02
2.670000000000262830e+00 5.154155094885882136e+02
2.690000000000262403e+00 5.114967409524571167e+02
2.710000000000261977e+00 5.057271090058940217e+02
2.730000000000261551e+00 5.010854272921837378e+02
2.750000000000261124e+00 4.945360758713109135e+02
2.770000000000260698e+00 4.887959237733198279e+02
2.790000000000260272e+00 4.851089294056479275e+02
2.810000000000259845e+00 4.806903237235908932e+02
2.830000000000259419e+00 4.755355523219570273e+02
2.850000000000258993e+00 4.704004445547453770e+02
2.870000000000258567e+00 4.692581121441273240e+02
2.890000000000258140e+00 4.641320320131572998e+02
2.910000000000257714e+00 4.554045400729906987e+02
2.930000000000257288e+00 4.531692050085181336e+02
2.950000000000256861e+00 4.480816173811697922e+02
2.970000000000256435e+00 4.438728862136579778e+02
2.990000000000256009e+00 4.395679295584931765e+02
3.010000000000255582e+00 4.360249356142938950e+02
3.030000000000255156e+00 4.322818400655494315e+02
3.050000000000254730e+00 4.273501390269096305e+02
3.070000000000254303e+00 4.226652719714316504e+02
3.090000000000253877e+00 4.186610387710464352e+02
3.110000000000253451e+00 4.132017993406055894e+02
3.130000000000253024e+00 4.101798199705995103e+02
3.150000000000252598e+00 4.046765979100892991e+02
3.170000000000252172e+00 3.968772270854685189e+02
3.190000000000251745e+00 3.941982951388131369e+02
3.210000000000251319e+00 3.878923194529463103e+02
3.230000000000250893e+00 3.818694943269893542e+02
3.250000000000250466e+00 3.761707726027856324e+02
3.270000000000250040e+00 3.715536539799660432e+02
3.290000000000249614e+00 3.675177478872870438e+02
3.310000000000249187e+00 3.625386833556887609e+02
3.330000000000248761e+00 3.584165888169031859e+02
3.350000000000248335e+00 3.537058702618704729e+02
3.370000000000247908e+00 3.500035454402485016e+02
3.390000000000247482e+00 3.471196290894733352e+02
3.410000000000247056e+00 3.428382779442920310e+02
3.430000000000246629e+00 3.395024823984313116e+02
3.450000000000246203e+00 3.365955303347652716e+02
3.470000000000245777e+00 3.315323175366190185e+02
3.490000000000245350e+00 3.292138980882234023e+02
3.510000000000244924e+00 3.269617633309244980e+02
3.530000000000244498e+00 3.231597070141287418e+02
3.550000000000244071e+00 3.212841787333814523e+02
3.570000000000243645e+00 3.162788305641752231e+02
3.590000000000243219e+00 3.141061249374519093e+02
3.610000000000242792e+00 3.104773583757286701e+02
3.630000000000242366e+00 3.086699766281055304e+02
3.650000000000241940e+00 3.056153016638917279e+02
3.670000000000241513e+00 3.037254155634283279e+02
3.690000000000241087e+00 3.002553726495909245e+02
3.710000000000240661e+00 2.982723941551200255e+02
3.730000000000240234e+00 2.960979590026553865e+02
3.750000000000239808e+00 2.925578870986217908e+02
3.770000000000239382e+00 2.908667923381133846e+02
3.790000000000238956e+00 2.872650062453853934e+02
3.810000000000238529e+00 2.851332689879930058e+02
3.830000000000238103e+00 2.821813351594555002e+02
3.850000000000237677e+00 2.818449571458977516e+02
3.870000000000237250e+00 2.791257087634813843e+02
3.890000000000236824e+00 2.770779585179779474e+02
3.910000000000236398e+00 2.747138619523270791e+02
3.930000000000235971e+00 2.732759189934472488e+02
3.950000000000235545e+00 2.707151042213585583e+02
3.970000000000235119e+00 2.689685455456228169e+02
3.990000000000234692e+00 2.668683762709435427e+02
4.010000000000234266e+00 2.659776230275917328e+02
4.030000000000233840e+00 2.627256403776441402e+02
4.050000000000233413e+00 2.605226038066259662e+02
4.070000000000232987e+00 2.587152029905411155e+02
4.090000000000232561e+00 2.552315735104274950e+02
4.110000000000232134e+00 2.532577052632682353e+02
4.130000000000231708e+00 2.515364939231775168e+02
4.150000000000231282e+00 2.480208561030991632e+02
4.170000000000230855e+00 2.458524835047090846e+02
4.190000000000230429e+00 2.432116063010961398e+02
4.210000000000230003e+00 2.428083263399871043e+02
4.230000000000229576e+00 2.391701237257792343e+02
4.250000000000229150e+00 2.380350807750589865e+02
4.270000000000228724e+00 2.355599059591861248e+02
4.290000000000228297e+00 2.334440290798303010e+02
4.310000000000227871e+00 2.317136496583554788e+02
4.330000000000227445e+00 2.308345966106675746e+02
4.350000000000227018e+00 2.282023273075609779e+02
4.370000000000226592e+00 2.267527439860585616e+02
4.390000000000226166e+00 2.254809842041070169e+02
4.410000000000225739e+00 2.235899392260120067e+02
4.430000000000225313e+00 2.216830037794215116e+02
4.450000000000224887e+00 2.214390979957355512e+02
4.470000000000224460e+00 2.184997199485548265e+02
4.490000000000224034e+00 2.174126942483569849e+02
4.510000000000223608e+00 2.155515499695941060e+02
4.530000000000223181e+00 2.139064393452086676e+02
4.550000000000222755e+00 2.141807106159341174e+02
4.570000000000222329e+00 2.113126880540862942e+02
4.590000000000221902e+00 2.102603011855171644e+02
4.610000000000221476e+00 2.095125652012735316e+02
4.630000000000221050e+00 2.066573247752517943e+02
4.650000000000220624e+00 2.044130315022777609e+02
4.670000000000220197e+00 2.043548983464999935e+02
4.690000000000219771e+00 2.038186672186455439e+02
4.710000000000219345e+00 2.019118907389699586e+02
4.730000000000218918e+00 1.997907734670759510e+02
4.750000000000218492e+00 1.988187766053309247e+02
4.770000000000218066e+00 1.965616291808420044e+02
4.790000000000217639e+00 1.952242958239625921e+02
4.810000000000217213e+00 1.935166685745543589e+02
4.830000000000216787e+00 1.929231175751184821e+02
4.850000000000216360e+00 1.908843704500386593e+02
4.870000000000215934e+00 1.888625140131176181e+02
4.890000000000215508e+00 1.862068850615274016e+02
4.910000000000215081e+00 1.851791074216339439e+02
4.930000000000214655e+00 1.838308644485093168e+02
4.950000000000214229e+00 1.813563511379758211e+02
4.970000000000213802e+00 1.805336901396813687e+02
4.990000000000213376e+00 1.780245931745400867e+02
5.010000000000212950e+00 1.768290504727927726e+02
5.030000000000212523e+00 1.767688241784211129e+02
5.050000000000212097e+00 1.746750625393084420e+02
5.070000000000211671e+00 1.735753004710381617e+02
5.090000000000211244e+00 1.707600276674396298e+02
5.110000000000210818e+00 1.698416647501307466e+02
5.130000000000210392e+00 1.691299157448530934e+02
5.150000000000209965e+00 1.677885122260224477e+02
5.170000000000209539e+00 1.663472742006128158e+02
5.190000000000209113e+00 1.649399666235847803e+02
5.210000000000208686e+00 1.635248437937484312e+02
5.230000000000208260e+00 1.624306992335809241e+02
5.250000000000207834e+00 1.615504498109891358e+02
5.270000000000207407e+00 1.596851927711424821e+02
5.290000000000206981e+00 1.587700757359284296e+02
5.310000000000206555e+00 1.576987524425630625e+02
5.330000000000206128e+00 1.566067744072892367e+02
5.350000000000205702e+00 1.547183868606345527e+02
5.370000000000205276e+00 1.533128404061861545e+02
5.390000000000204849e+00 1.527132701231969349e+02
5.410000000000204423e+00 1.518668009808204999e+02
5.430000000000203997e+00 1.497848895004272833e+02
5.450000000000203570e+00 1.491094683570660209e+02
5.470000000000203144e+00 1.475978056800121578e+02
5.490000000000202718e+00 1.463315288038360507e+02
5.510000000000202292e+00 1.456767084522647906e+02
5.530000000000201865e+00 1.439179060076909593e+02
5.550000000000201439e+00 1.424698148449648443e+02
5.570000000000201013e+00 1.413978932253980076e+02
5.590000000000200586e+00 1.407014108630906435e+02
5.610000000000200160e+00 1.389917574601720389e+02
5.630000000000199734e+00 1.379945478588276160e+02
5.650000000000199307e+00 1.367397452840259859e+02
5.670000000000198881e+00 1.352598358090987745e+02
5.690000000000198455e+00 1.344875369045240632e+02
5.710000000000198028e+00 1.332146320070394268e+02
5.730000000000197602e+00 1.318133662771029435e+02
5.750000000000197176e+00 1.307615179555154725e+02
5.770000000000196749e+00 1.304870014775693221e+02
5.790000000000196323e+00 1.291533107749309863e+02
5.810000000000195897e+00 1.287963780280637422e+02
5.830000000000195470e+00 1.268313568937036138e+02
5.850000000000195044e+00 1.268797648881324420e+02
5.870000000000194618e+00 1.254966793257478344e+02
5.890000000000194191e+00 1.237242473700408283e+02
5.910000000000193765e+00 1.230593837925915750e+02
5.930000000000193339e+00 1.216157277807523656e+02
5.950000000000192912e+00 1.216260895077635951e+02
5.970000000000192486e+00 1.200877755893097714e+02
5.990000000000192060e+00 1.190582013242753874e+02
6.010000000000191633e+00 1.173624075344052073e+02
6.030000000000191207e+00 1.171060400640050432e+02
6.050000000000190781e+00 1.170679415104410594e+02
6.070000000000190354e+00 1.148621850286837116e+02
6.090000000000189928e+00 1.132744257024538115e+02
6.110000000000189502e+00 1.127005076137240991e+02
6.130000000000189075e+00 1.118604570463376859e+02
6.150000000000188649e+00 1.114678146061058612e+02
6.170000000000188223e+00 1.097810644498802617e+02
6.190000000000187796e+00 1.092740892525591647e+02
6.210000000000187370e+00 1.081683984208442979e+02
6.230000000000186944e+00 1.076626839321666012e+02
6.250000000000186517e+00 1.062045588593139769e+02
6.270000000000186091e+00 1.059888909257024352e+02
6.290000000000185665e+00 1.051148988846951084e+02
6.310000000000185238e+00 1.044663290435100294e+02
6.330000000000184812e+00 1.030760703601196298e+02
6.350000000000184386e+00 1.022412755234076798e+02
6.370000000000183960e+00 1.014373983045114898e+02
6.390000000000183533e+00 1.005559035868454743e+02
6.410000000000183107e+00 1.003490465920617538e+02
6.430000000000182681e+00 9.990919774928570973e+01
6.450000000000182254e+00 9.889603058242083478e+01
6.470000000000181828e+00 9.773106155528165573e+01
6.490000000000181402e+00 9.725075580531120067e+01
6.510000000000180975e+00 9.655363039627727062e+01
6.530000000000180549e+00 9.586243109232374593e+01
6.550000000000180123e+00 9.523137784324430299e+01
6.570000000000179696e+00 9.402858495957551099e+01
6.590000000000179270e+00 9.389514115239269643e+01
6.610000000000178844e+00 9.310454428671290827e+01
6.630000000000178417e+00 9.238636537119123204e+01
6.650000000000177991e+00 9.193069202738959689e+01
6.670000000000177565e+00 9.087767313407547931e+01
6.690000000000177138e+00 9.048983304782356640e+01
6.710000000000176712e+00 9.020128823663777951e+01
6.730000000000176286e+00 8.992232545934047039e+01
6.750000000000175859e+00 8.845859668887509031e+01
6.770000000000175433e+00 8.793480088467582334e+01
6.790000000000175007e+00 8.774945248569855494e+01
6.810000000000174580e+00 8.678282781145384206e+01
6.830000000000174154e+00 8.628751474221219553e+01
6.850000000000173728e+00 8.631805867791604214e+01
6.870000000000173301e+00 8.572761228904626307e+01
6.890000000000172875e+00 8.493042741471468560e+01
6.910000000000172449e+00 8.451302606122702343e+01
6.930000000000172022e+00 8.395201120193686961e+01
6.950000000000171596e+00 8.384674699544981991e+01
6.970000000000171170e+00 8.270176560465542082e+01
6.990000000000170743e+00 8.227452704677327233e+01
7.010000000000170317e+00 8.205170190770705574e+01
7.030000000000169891e+00 8.174764481388753268e+01
7.050000000000169464e+00 8.120460866456529914e+01
7.070000000000169038e+00 8.076132894470467249e+01
7.090000000000168612e+00 8.072180052020362950e+01
7.110000000000168185e+00 7.991052100640187916e+01
7.130000000000167759e+00 7.949241779117718920e+01
7.150000000000167333e+00 7.921748302981376355e+01
7.170000000000166906e+00 7.881646273684859239e+01
7.190000000000166480e+00 7.833007929671518355e+01
7.210000000000166054e+00 7.859406314568350638e+01
7.230000000000165628e+00 7.764222836934686711e+01
7.250000000000165201e+00 7.783982777162044897e+01
7.270000000000164775e+00 7.704866063368490359e+01
7.290000000000164349e+00 7.640951737376927611e+01
7.310000000000163922e+00 7.660672416043321675e+01
7.330000000000163496e+00 7.589440854532836056e+01
7.350000000000163070e+00 7.552037518734960031e+01
7.370000000000162643e+00 7.505711484389397015e+01
7.390000000000162217e+00 7.495038188539338364e+01
7.410000000000161791e+00 7.498263410755843950e+01
7.430000000000161364e+00 7.382786794921267415e+01
7.450000000000160938e+00 7.410499276351823994e+01
7.470000000000160512e+00 7.365327469598234700e+01
7.490000000000160085e+00 7.369534823152611125e+01
7.510000000000159659e+00 7.360226603379911126e+01
7.530000000000159233e+00 7.304650824322177982e+01
7.550000000000158806e+00 7.271135371327069663e+01
7.570000000000158380e+00 7.296789955567976449e+01
7.590000000000157954e+00 7.249323202641063801e+01
7.610000000000157527e+00 7.218167194456913194e+01
7.630000000000157101e+00 7.255396884773094257e+01
7.650000000000156675e+00 7.195631927554229890e+01
7.670000000000156248e+00 7.178430618222306236e+01
7.690000000000155822e+00 7.162246121632908569e+01
7.710000000000155396e+00 7.150486056688987446e+01
7.730000000000154969e+00 7.123464810269695136e+01
7.750000000000154543e+00 7.085618733541751624e+01
7.770000000000154117e+00 7.088652258269510753e+01
7.790000000000153690e+00 7.135935578916436839e+01
7.810000000000153264e+00 7.049476956161007024e+01
7.830000000000152838e+00 7.080430952787277477e+01
7.850000000000152411e+00 7.057581864956827644e+01
7.870000000000151985e+00 7.030112061851605176e+01
7.890000000000151559e+00 7.023268277375484558e+01
7.910000000000151132e+00 7.031570507489119848e+01
7.930000000000150706e+00 7.037927225067527104e+01
7.950000000000150280e+00 7.048333121665183398e+01
7.970000000000149853e+00 7.031616544923355150e+01
