# Redshift		Merger Rate Density [Gpc^-3yr^-1]
1.000000000031931770e-02 1.561713923340283827e+02
3.000000000031888964e-02 1.647291009800986217e+02
5.000000000031846331e-02 1.706292973848196937e+02
7.000000000031804392e-02 1.783817082132810299e+02
9.000000000031761760e-02 1.849055728148513538e+02
1.100000000003171913e-01 1.937084190871528051e+02
1.300000000003167511e-01 2.015181335199488615e+02
1.500000000003163247e-01 2.102302044441314308e+02
1.700000000003158984e-01 2.172234553541798050e+02
1.900000000003154721e-01 2.275882284534027917e+02
2.100000000003150458e-01 2.346118817669736529e+02
2.300000000003146194e-01 2.429921556675419083e+02
2.500000000003141931e-01 2.538202836667561826e+02
2.700000000003137668e-01 2.631989409442539909e+02
2.900000000003133405e-01 2.713484491031427410e+02
3.100000000003129141e-01 2.829078399148442031e+02
3.300000000003124878e-01 2.906426188478091035e+02
3.500000000003120615e-01 3.013669323708433581e+02
3.700000000003116352e-01 3.116359525250865090e+02
3.900000000003112088e-01 3.200237304479408635e+02
4.100000000003107825e-01 3.314685834337844881e+02
4.300000000003103562e-01 3.412879523860091240e+02
4.500000000003099299e-01 3.503094769885212258e+02
4.700000000003095035e-01 3.646988312850450029e+02
4.900000000003090772e-01 3.704512155592095155e+02
5.100000000003086509e-01 3.841916153154954827e+02
5.300000000003082246e-01 3.940053876473694459e+02
5.500000000003077982e-01 4.052120905631529695e+02
5.700000000003073719e-01 4.158855308615475224e+02
5.900000000003069456e-01 4.252083867876664272e+02
6.100000000003065193e-01 4.383876281681017986e+02
6.300000000003060929e-01 4.478153225327587847e+02
6.500000000003056666e-01 4.591912937611850225e+02
6.700000000003052403e-01 4.688838514265756885e+02
6.900000000003048140e-01 4.796447216363953885e+02
7.100000000003043876e-01 4.921997334777211677e+02
7.300000000003039613e-01 5.028689339014846951e+02
7.500000000003035350e-01 5.113476797032089962e+02
7.700000000003031086e-01 5.252315251528366389e+02
7.900000000003026823e-01 5.334720728703811119e+02
8.100000000003022560e-01 5.447065080150350695e+02
8.300000000003018297e-01 5.540901478446056672e+02
8.500000000003014033e-01 5.680014215065457392e+02
8.700000000003009770e-01 5.728320736603602654e+02
8.900000000003005507e-01 5.888777779774536612e+02
9.100000000003001244e-01 5.942274814898473778e+02
9.300000000002996980e-01 6.077224538435415297e+02
9.500000000002992717e-01 6.142198754185848202e+02
9.700000000002988454e-01 6.232309184152992430e+02
9.900000000002984191e-01 6.315203612412540224e+02
1.010000000000297993e+00 6.404348162547806851e+02
1.030000000000297566e+00 6.453745922837981652e+02
1.050000000000297140e+00 6.554535275629829130e+02
1.070000000000296714e+00 6.675630447752132568e+02
1.090000000000296287e+00 6.720252961933023244e+02
1.110000000000295861e+00 6.759311645868250480e+02
1.130000000000295435e+00 6.791360995059352490e+02
1.150000000000295008e+00 6.869534127729056081e+02
1.170000000000294582e+00 6.934333196263564787e+02
1.190000000000294156e+00 6.984719629839834170e+02
1.210000000000293729e+00 7.028491654585085371e+02
1.230000000000293303e+00 7.058934225779483995e+02
1.250000000000292877e+00 7.107610956878736488e+02
1.270000000000292451e+00 7.149647288528051376e+02
1.290000000000292024e+00 7.128748810179379234e+02
1.310000000000291598e+00 7.208206289864828022e+02
1.330000000000291172e+00 7.248659343484472402e+02
1.350000000000290745e+00 7.189930335091024745e+02
1.370000000000290319e+00 7.264620767138657129e+02
1.390000000000289893e+00 7.275982473988947277e+02
1.410000000000289466e+00 7.225789807431417557e+02
1.430000000000289040e+00 7.299090499672216765e+02
1.450000000000288614e+00 7.329544229065804757e+02
1.470000000000288187e+00 7.259673005329901798e+02
1.490000000000287761e+00 7.290495061492861169e+02
1.510000000000287335e+00 7.234978283334565958e+02
1.530000000000286908e+00 7.266924654562427577e+02
1.550000000000286482e+00 7.263872435244646795e+02
1.570000000000286056e+00 7.205501915590110684e+02
1.590000000000285629e+00 7.189500211406458448e+02
1.610000000000285203e+00 7.200634348653891266e+02
1.630000000000284777e+00 7.129643492944071568e+02
1.650000000000284350e+00 7.173928384464585406e+02
1.670000000000283924e+00 7.074838111613642013e+02
1.690000000000283498e+00 7.082339182425844228e+02
1.710000000000283071e+00 7.062558448611301856e+02
1.730000000000282645e+00 7.026825959850780237e+02
1.750000000000282219e+00 6.962955221910452792e+02
1.770000000000281792e+00 6.894918764588886688e+02
1.790000000000281366e+00 6.864131606469109101e+02
1.810000000000280940e+00 6.824691822090248934e+02
1.830000000000280513e+00 6.781622539883042009e+02
1.850000000000280087e+00 6.732349828378158918e+02
1.870000000000279661e+00 6.699154298897846047e+02
1.890000000000279234e+00 6.597701602580882536e+02
1.910000000000278808e+00 6.601606967240951462e+02
1.930000000000278382e+00 6.493042255600630597e+02
1.950000000000277955e+00 6.494620845552509536e+02
1.970000000000277529e+00 6.425708296947758527e+02
1.990000000000277103e+00 6.381498778373864980e+02
2.010000000000276899e+00 6.303430926231882268e+02
2.030000000000276472e+00 6.235113281866107400e+02
2.050000000000276046e+00 6.209377066605566142e+02
2.070000000000275620e+00 6.093784839993439846e+02
2.090000000000275193e+00 6.071273037879117283e+02
2.110000000000274767e+00 5.967020721210927832e+02
2.130000000000274341e+00 5.913197485330057361e+02
2.150000000000273914e+00 5.853910272969011430e+02
2.170000000000273488e+00 5.814679120661679690e+02
2.190000000000273062e+00 5.694899674689654603e+02
2.210000000000272635e+00 5.626823843786551151e+02
2.230000000000272209e+00 5.578861971905782866e+02
2.250000000000271783e+00 5.535712363193923693e+02
2.270000000000271356e+00 5.403939588309145847e+02
2.290000000000270930e+00 5.369231397651710722e+02
2.310000000000270504e+00 5.280474278792818268e+02
2.330000000000270077e+00 5.211989008667844701e+02
2.350000000000269651e+00 5.161687576930992236e+02
2.370000000000269225e+00 5.071332591610241707e+02
2.390000000000268798e+00 5.041704631372189738e+02
2.410000000000268372e+00 4.945949454593484802e+02
2.430000000000267946e+00 4.862875985681756106e+02
2.450000000000267519e+00 4.835270438670804651e+02
2.470000000000267093e+00 4.705024741763237444e+02
2.490000000000266667e+00 4.677667244229631933e+02
2.510000000000266240e+00 4.599116299295899921e+02
2.530000000000265814e+00 4.522359103593543068e+02
2.550000000000265388e+00 4.494328555947136579e+02
2.570000000000264961e+00 4.375752092534962117e+02
2.590000000000264535e+00 4.326291744288664631e+02
2.610000000000264109e+00 4.280899826689342831e+02
2.630000000000263682e+00 4.201833089770472611e+02
2.650000000000263256e+00 4.115774426231474763e+02
2.670000000000262830e+00 4.043572510960828481e+02
2.690000000000262403e+00 3.988744305753024264e+02
2.710000000000261977e+00 3.926351004782986251e+02
2.730000000000261551e+00 3.851794266000420066e+02
2.750000000000261124e+00 3.802006895815160306e+02
2.770000000000260698e+00 3.743173523898234976e+02
2.790000000000260272e+00 3.666306996011231263e+02
2.810000000000259845e+00 3.611091524501701429e+02
2.830000000000259419e+00 3.577770881259344264e+02
2.850000000000258993e+00 3.492183910119456982e+02
2.870000000000258567e+00 3.435425674896063128e+02
2.890000000000258140e+00 3.368981110595863129e+02
2.910000000000257714e+00 3.317601380400651010e+02
2.930000000000257288e+00 3.231142007482815188e+02
2.950000000000256861e+00 3.178043244237084082e+02
2.970000000000256435e+00 3.117607258111459601e+02
2.990000000000256009e+00 3.063712576403777916e+02
3.010000000000255582e+00 3.029850630518686785e+02
3.030000000000255156e+00 2.981607105091541143e+02
3.050000000000254730e+00 2.920125507059972847e+02
3.070000000000254303e+00 2.866177358662088182e+02
3.090000000000253877e+00 2.813311306851016980e+02
3.110000000000253451e+00 2.737868988436229074e+02
3.130000000000253024e+00 2.695843668095752150e+02
3.150000000000252598e+00 2.665077712416050986e+02
3.170000000000252172e+00 2.596656458263528293e+02
3.190000000000251745e+00 2.571937582596933680e+02
3.210000000000251319e+00 2.499658203236254792e+02
3.230000000000250893e+00 2.459555207589157533e+02
3.250000000000250466e+00 2.420074310898243937e+02
3.270000000000250040e+00 2.365919502571908026e+02
3.290000000000249614e+00 2.307943890522573440e+02
3.310000000000249187e+00 2.275247114043181114e+02
3.330000000000248761e+00 2.227117791003028344e+02
3.350000000000248335e+00 2.182008599635985036e+02
3.370000000000247908e+00 2.164996996910948042e+02
3.390000000000247482e+00 2.100022881814274172e+02
3.410000000000247056e+00 2.051555536504952215e+02
3.430000000000246629e+00 2.019021868508290254e+02
3.450000000000246203e+00 1.982905781409824897e+02
3.470000000000245777e+00 1.942536651105113492e+02
3.490000000000245350e+00 1.887878150629763638e+02
3.510000000000244924e+00 1.865048381520909970e+02
3.530000000000244498e+00 1.833934686308561197e+02
3.550000000000244071e+00 1.811302436036072550e+02
3.570000000000243645e+00 1.756519539689586793e+02
3.590000000000243219e+00 1.729399450660237392e+02
3.610000000000242792e+00 1.687456990145936118e+02
3.630000000000242366e+00 1.672149142259106043e+02
3.650000000000241940e+00 1.632810449806021893e+02
3.670000000000241513e+00 1.596101972743967963e+02
3.690000000000241087e+00 1.561511047610281366e+02
3.710000000000240661e+00 1.523497779767514544e+02
3.730000000000240234e+00 1.515307664726349515e+02
3.750000000000239808e+00 1.478052183508044095e+02
3.770000000000239382e+00 1.453293311248093289e+02
3.790000000000238956e+00 1.412653177088419909e+02
3.810000000000238529e+00 1.395149384079730055e+02
3.830000000000238103e+00 1.361813055421492606e+02
3.850000000000237677e+00 1.346974717035280094e+02
3.870000000000237250e+00 1.321391243616035922e+02
3.890000000000236824e+00 1.290114937161443152e+02
3.910000000000236398e+00 1.273821942045265132e+02
3.930000000000235971e+00 1.243796825302987088e+02
3.950000000000235545e+00 1.223589142224083162e+02
3.970000000000235119e+00 1.201488933225529081e+02
3.990000000000234692e+00 1.176581083764210547e+02
4.010000000000234266e+00 1.158572841706970848e+02
4.030000000000233840e+00 1.127836980545524597e+02
4.050000000000233413e+00 1.130479681415350086e+02
4.070000000000232987e+00 1.096597441375921989e+02
4.090000000000232561e+00 1.075146547495769909e+02
4.110000000000232134e+00 1.058769162517051541e+02
4.130000000000231708e+00 1.042525999265393892e+02
4.150000000000231282e+00 1.028457985041595464e+02
4.170000000000230855e+00 1.011463042543115591e+02
4.190000000000230429e+00 9.891885969976884496e+01
4.210000000000230003e+00 9.763227157604502793e+01
4.230000000000229576e+00 9.590775382788508807e+01
4.250000000000229150e+00 9.486904058943312634e+01
4.270000000000228724e+00 9.443225932753081509e+01
4.290000000000228297e+00 9.221163084200543381e+01
4.310000000000227871e+00 9.028968823482706796e+01
4.330000000000227445e+00 8.889777309397096872e+01
4.350000000000227018e+00 8.732857700837057280e+01
4.370000000000226592e+00 8.687830133389303455e+01
4.390000000000226166e+00 8.569868256696118181e+01
4.410000000000225739e+00 8.376876306131335070e+01
4.430000000000225313e+00 8.363672445168758429e+01
4.450000000000224887e+00 8.114044475969731707e+01
4.470000000000224460e+00 8.119928719566479458e+01
4.490000000000224034e+00 7.982323829105288837e+01
4.510000000000223608e+00 7.912689475320770782e+01
4.530000000000223181e+00 7.794740146764262079e+01
4.550000000000222755e+00 7.795669013115154655e+01
4.570000000000222329e+00 7.615780060372662774e+01
4.590000000000221902e+00 7.507826994543891885e+01
4.610000000000221476e+00 7.429060825239648125e+01
4.630000000000221050e+00 7.389018587500106605e+01
4.650000000000220624e+00 7.268050281162737747e+01
4.670000000000220197e+00 7.183925578291055558e+01
4.690000000000219771e+00 7.179857586925167823e+01
4.710000000000219345e+00 7.030386969420679577e+01
4.730000000000218918e+00 6.997473253862082743e+01
4.750000000000218492e+00 6.968863385907707197e+01
4.770000000000218066e+00 6.883576435292091844e+01
4.790000000000217639e+00 6.722423930480154297e+01
4.810000000000217213e+00 6.755434584748338978e+01
4.830000000000216787e+00 6.620754748428929304e+01
4.850000000000216360e+00 6.512282952120740731e+01
4.870000000000215934e+00 6.611285211915772209e+01
4.890000000000215508e+00 6.465357774816857273e+01
4.910000000000215081e+00 6.408367160329753176e+01
4.930000000000214655e+00 6.392145644839247609e+01
4.950000000000214229e+00 6.373597413906251319e+01
4.970000000000213802e+00 6.350513645789973793e+01
4.990000000000213376e+00 6.263848344487519171e+01
5.010000000000212950e+00 6.267197583247507708e+01
5.030000000000212523e+00 6.151278502017208183e+01
5.050000000000212097e+00 6.129399954643106696e+01
5.070000000000211671e+00 5.995994485610122382e+01
5.090000000000211244e+00 6.011027678875539237e+01
5.110000000000210818e+00 5.954122289560822168e+01
5.130000000000210392e+00 6.013540850442822716e+01
5.150000000000209965e+00 5.904744504246173165e+01
5.170000000000209539e+00 5.812896143580409358e+01
5.190000000000209113e+00 5.835014476326542621e+01
5.210000000000208686e+00 5.785875522772312252e+01
5.230000000000208260e+00 5.737722502786783707e+01
5.250000000000207834e+00 5.740585899026711303e+01
5.270000000000207407e+00 5.677996957638848130e+01
5.290000000000206981e+00 5.666947157363033938e+01
5.310000000000206555e+00 5.605808483438007528e+01
5.330000000000206128e+00 5.594636644646925561e+01
5.350000000000205702e+00 5.542143369237561501e+01
5.370000000000205276e+00 5.533286479385699863e+01
5.390000000000204849e+00 5.484168114234524438e+01
5.410000000000204423e+00 5.391741063242141507e+01
5.430000000000203997e+00 5.464560766235235434e+01
5.450000000000203570e+00 5.371738124937226644e+01
5.470000000000203144e+00 5.314730888074905835e+01
5.490000000000202718e+00 5.297774131489104121e+01
5.510000000000202292e+00 5.224800989135137996e+01
5.530000000000201865e+00 5.145932012993520743e+01
5.550000000000201439e+00 5.094892982830879902e+01
5.570000000000201013e+00 5.085735048063458663e+01
5.590000000000200586e+00 5.113283673039626365e+01
5.610000000000200160e+00 4.990925527379040005e+01
5.630000000000199734e+00 4.931200425910704155e+01
5.650000000000199307e+00 4.985006610478772870e+01
5.670000000000198881e+00 4.927890488302403327e+01
5.690000000000198455e+00 4.882999437647060148e+01
5.710000000000198028e+00 4.764683223600992079e+01
5.730000000000197602e+00 4.756977130468571602e+01
5.750000000000197176e+00 4.770706086719781780e+01
5.770000000000196749e+00 4.688361744262645203e+01
5.790000000000196323e+00 4.625356549073881496e+01
5.810000000000195897e+00 4.608070038958546633e+01
5.830000000000195470e+00 4.568856839312644524e+01
5.850000000000195044e+00 4.497956330710213990e+01
5.870000000000194618e+00 4.428671901739745920e+01
5.890000000000194191e+00 4.414088685685022995e+01
5.910000000000193765e+00 4.341955649808780748e+01
5.930000000000193339e+00 4.290575355547452574e+01
5.950000000000192912e+00 4.258364713652851208e+01
5.970000000000192486e+00 4.227577779573374528e+01
5.990000000000192060e+00 4.109565167389320806e+01
6.010000000000191633e+00 4.083884431672296245e+01
6.030000000000191207e+00 4.065897878134867227e+01
6.050000000000190781e+00 3.984118291835835635e+01
6.070000000000190354e+00 3.934482330145610973e+01
6.090000000000189928e+00 3.899228494002853296e+01
6.110000000000189502e+00 3.816933085693283800e+01
6.130000000000189075e+00 3.826318722375426518e+01
6.150000000000188649e+00 3.714006133785404273e+01
6.170000000000188223e+00 3.676186064059938730e+01
6.190000000000187796e+00 3.593114619719334257e+01
6.210000000000187370e+00 3.540441271243443566e+01
6.230000000000186944e+00 3.545887179270946632e+01
6.250000000000186517e+00 3.451940843071326981e+01
6.270000000000186091e+00 3.451566610511941491e+01
6.290000000000185665e+00 3.375945122230285023e+01
6.310000000000185238e+00 3.345595361775097842e+01
6.330000000000184812e+00 3.264879173288156267e+01
6.350000000000184386e+00 3.208943541037365321e+01
6.370000000000183960e+00 3.155238804472254088e+01
6.390000000000183533e+00 3.106426064164004686e+01
6.410000000000183107e+00 3.036671702206230705e+01
6.430000000000182681e+00 2.997888812109653145e+01
6.450000000000182254e+00 2.958292029041674809e+01
6.470000000000181828e+00 2.928058407116148842e+01
6.490000000000181402e+00 2.868814785431595027e+01
6.510000000000180975e+00 2.857661331845067920e+01
6.530000000000180549e+00 2.807524047110255339e+01
6.550000000000180123e+00 2.763743758988589505e+01
6.570000000000179696e+00 2.664589097401227846e+01
6.590000000000179270e+00 2.657531091769894260e+01
6.610000000000178844e+00 2.619238324402755325e+01
6.630000000000178417e+00 2.590680553698913258e+01
6.650000000000177991e+00 2.531840087350910551e+01
6.670000000000177565e+00 2.474844557048181670e+01
6.690000000000177138e+00 2.459473652459300297e+01
6.710000000000176712e+00 2.395181709577931883e+01
6.730000000000176286e+00 2.388414790861199322e+01
6.750000000000175859e+00 2.339368958648950070e+01
6.770000000000175433e+00 2.306204185822501174e+01
6.790000000000175007e+00 2.245690788582001574e+01
6.810000000000174580e+00 2.225221116368817320e+01
6.830000000000174154e+00 2.185714806188520498e+01
6.850000000000173728e+00 2.203105641701277051e+01
6.870000000000173301e+00 2.124651605674547739e+01
6.890000000000172875e+00 2.099910548889583595e+01
6.910000000000172449e+00 2.060786668584719905e+01
6.930000000000172022e+00 2.029736164899455630e+01
6.950000000000171596e+00 2.032744935942167785e+01
6.970000000000171170e+00 1.987061915777535503e+01
6.990000000000170743e+00 1.960070150367232245e+01
7.010000000000170317e+00 1.920222273653718403e+01
7.030000000000169891e+00 1.911814445993499945e+01
7.050000000000169464e+00 1.905158039288145844e+01
7.070000000000169038e+00 1.856138342852475986e+01
7.090000000000168612e+00 1.851929549647497097e+01
7.110000000000168185e+00 1.817786891712844621e+01
7.130000000000167759e+00 1.792663417375983315e+01
7.150000000000167333e+00 1.771408439245915645e+01
7.170000000000166906e+00 1.742723934523446516e+01
7.190000000000166480e+00 1.719101924733731224e+01
7.210000000000166054e+00 1.719663442022159572e+01
7.230000000000165628e+00 1.682187114046305254e+01
7.250000000000165201e+00 1.685045846952181137e+01
7.270000000000164775e+00 1.655056423202239557e+01
7.290000000000164349e+00 1.647666843657292191e+01
7.310000000000163922e+00 1.634273311766822090e+01
7.330000000000163496e+00 1.603874391012712408e+01
7.350000000000163070e+00 1.591467876522370339e+01
7.370000000000162643e+00 1.609857314911192461e+01
7.390000000000162217e+00 1.570368287248799533e+01
7.410000000000161791e+00 1.533299991633464110e+01
7.430000000000161364e+00 1.531863576456542120e+01
7.450000000000160938e+00 1.532686742345238606e+01
7.470000000000160512e+00 1.531409793171240707e+01
7.490000000000160085e+00 1.498937499022183140e+01
7.510000000000159659e+00 1.503097323499249072e+01
7.530000000000159233e+00 1.481209187457004717e+01
7.550000000000158806e+00 1.486345959035164022e+01
7.570000000000158380e+00 1.475892760562003048e+01
7.590000000000157954e+00 1.474543107667305541e+01
7.610000000000157527e+00 1.478030808804477481e+01
7.630000000000157101e+00 1.453961621976117868e+01
7.650000000000156675e+00 1.424740197531798636e+01
7.670000000000156248e+00 1.443274284280380826e+01
7.690000000000155822e+00 1.438900909648386950e+01
7.710000000000155396e+00 1.423076508190572298e+01
7.730000000000154969e+00 1.431442733936562561e+01
7.750000000000154543e+00 1.429508643172002635e+01
7.770000000000154117e+00 1.401790807510269410e+01
7.790000000000153690e+00 1.394823318948733970e+01
7.810000000000153264e+00 1.387951719366328618e+01
7.830000000000152838e+00 1.401918924829911006e+01
7.850000000000152411e+00 1.399885262311884837e+01
7.870000000000151985e+00 1.392626100813723333e+01
7.890000000000151559e+00 1.402458281399021267e+01
7.910000000000151132e+00 1.389960818689589139e+01
7.930000000000150706e+00 1.382368205429122199e+01
7.950000000000150280e+00 1.380276043349038595e+01
7.970000000000149853e+00 1.397434899205269687e+01
