# Redshift		Merger Rate Density [Gpc^-3yr^-1]
1.000000000031931770e-02 2.142829575331608680e+02
3.000000000031888964e-02 2.165974368874425977e+02
5.000000000031846331e-02 2.213372969334510003e+02
7.000000000031804392e-02 2.245523777331315500e+02
9.000000000031761760e-02 2.298225950570448504e+02
1.100000000003171913e-01 2.336027228055523892e+02
1.300000000003167511e-01 2.387964490623584766e+02
1.500000000003163247e-01 2.440870647719751787e+02
1.700000000003158984e-01 2.491025158979875300e+02
1.900000000003154721e-01 2.534124696053596892e+02
2.100000000003150458e-01 2.581666783697517644e+02
2.300000000003146194e-01 2.640032348244820355e+02
2.500000000003141931e-01 2.690806396981514581e+02
2.700000000003137668e-01 2.739000373946511218e+02
2.900000000003133405e-01 2.772658421808542357e+02
3.100000000003129141e-01 2.815546720405488941e+02
3.300000000003124878e-01 2.881501440654620296e+02
3.500000000003120615e-01 2.901873324689255469e+02
3.700000000003116352e-01 2.964975065276095165e+02
3.900000000003112088e-01 3.026080425565540963e+02
4.100000000003107825e-01 3.083723444045427300e+02
4.300000000003103562e-01 3.131262530068055412e+02
4.500000000003099299e-01 3.164902228130075628e+02
4.700000000003095035e-01 3.215796824663738676e+02
4.900000000003090772e-01 3.277766466791213702e+02
5.100000000003086509e-01 3.311107642746874831e+02
5.300000000003082246e-01 3.358325666117950732e+02
5.500000000003077982e-01 3.401538392096167058e+02
5.700000000003073719e-01 3.473840283457032569e+02
5.900000000003069456e-01 3.511016496759376651e+02
6.100000000003065193e-01 3.567824345519517806e+02
6.300000000003060929e-01 3.644979126554225104e+02
6.500000000003056666e-01 3.681969320400087895e+02
6.700000000003052403e-01 3.716537251214974731e+02
6.900000000003048140e-01 3.799983901598631633e+02
7.100000000003043876e-01 3.825850015916553275e+02
7.300000000003039613e-01 3.898593693772581332e+02
7.500000000003035350e-01 3.913584611256161452e+02
7.700000000003031086e-01 3.987674399979828763e+02
7.900000000003026823e-01 4.027204501511532158e+02
8.100000000003022560e-01 4.100290019135158559e+02
8.300000000003018297e-01 4.134276377495274346e+02
8.500000000003014033e-01 4.202246581397183149e+02
8.700000000003009770e-01 4.228288435248713881e+02
8.900000000003005507e-01 4.292142207525220670e+02
9.100000000003001244e-01 4.305564080641997293e+02
9.300000000002996980e-01 4.370097243596972589e+02
9.500000000002992717e-01 4.416342474854931766e+02
9.700000000002988454e-01 4.462655760373874045e+02
9.900000000002984191e-01 4.504181139306728028e+02
1.010000000000297993e+00 4.500976821826065475e+02
1.030000000000297566e+00 4.584394056511820281e+02
1.050000000000297140e+00 4.589450349713302444e+02
1.070000000000296714e+00 4.658404244061389363e+02
1.090000000000296287e+00 4.707826081551240236e+02
1.110000000000295861e+00 4.714073386412242144e+02
1.130000000000295435e+00 4.764891225823521381e+02
1.150000000000295008e+00 4.788319837012044218e+02
1.170000000000294582e+00 4.828459881446921713e+02
1.190000000000294156e+00 4.857477549213306247e+02
1.210000000000293729e+00 4.891981526234813487e+02
1.230000000000293303e+00 4.919566712112437585e+02
1.250000000000292877e+00 4.968167448570764577e+02
1.270000000000292451e+00 4.958881359324115579e+02
1.290000000000292024e+00 5.004881976972233701e+02
1.310000000000291598e+00 5.022408490153680418e+02
1.330000000000291172e+00 5.051446470409985068e+02
1.350000000000290745e+00 5.037289017316679747e+02
1.370000000000290319e+00 5.078372765031815561e+02
1.390000000000289893e+00 5.101445327646464420e+02
1.410000000000289466e+00 5.151954932602342296e+02
1.430000000000289040e+00 5.127625934983124125e+02
1.450000000000288614e+00 5.182886290708868273e+02
1.470000000000288187e+00 5.170998872358297831e+02
1.490000000000287761e+00 5.208032050012205900e+02
1.510000000000287335e+00 5.158964903659909851e+02
1.530000000000286908e+00 5.220159849021098353e+02
1.550000000000286482e+00 5.210427973373543864e+02
1.570000000000286056e+00 5.218008834607144308e+02
1.590000000000285629e+00 5.221023127127941734e+02
1.610000000000285203e+00 5.221577568927856419e+02
1.630000000000284777e+00 5.222128026769906910e+02
1.650000000000284350e+00 5.193603262696641423e+02
1.670000000000283924e+00 5.242948835783486174e+02
1.690000000000283498e+00 5.204100120561460017e+02
1.710000000000283071e+00 5.189844230458534184e+02
1.730000000000282645e+00 5.173935705070721269e+02
1.750000000000282219e+00 5.182084244101288277e+02
1.770000000000281792e+00 5.151720739788398760e+02
1.790000000000281366e+00 5.151158805515431141e+02
1.810000000000280940e+00 5.140932731096930866e+02
1.830000000000280513e+00 5.067591679444243482e+02
1.850000000000280087e+00 5.064692165389633374e+02
1.870000000000279661e+00 5.070930318723213190e+02
1.890000000000279234e+00 5.016314269926830889e+02
1.910000000000278808e+00 4.993255228134186154e+02
1.930000000000278382e+00 4.966651748917254849e+02
1.950000000000277955e+00 4.951987334581743880e+02
1.970000000000277529e+00 4.874412659418653107e+02
1.990000000000277103e+00 4.877445368027946415e+02
2.010000000000276899e+00 4.832770698358262962e+02
2.030000000000276472e+00 4.781198720586742752e+02
2.050000000000276046e+00 4.764073825947347700e+02
2.070000000000275620e+00 4.737881347158258905e+02
2.090000000000275193e+00 4.661307563922788404e+02
2.110000000000274767e+00 4.664311380137691572e+02
2.130000000000274341e+00 4.574019721332229551e+02
2.150000000000273914e+00 4.519676862035528302e+02
2.170000000000273488e+00 4.507660914957301657e+02
2.190000000000273062e+00 4.465516149318802945e+02
2.210000000000272635e+00 4.422624362933101452e+02
2.230000000000272209e+00 4.351337233920209542e+02
2.250000000000271783e+00 4.296252434485551817e+02
2.270000000000271356e+00 4.274902440374463026e+02
2.290000000000270930e+00 4.235136087442096482e+02
2.310000000000270504e+00 4.185672328848780808e+02
2.330000000000270077e+00 4.115014110475604525e+02
2.350000000000269651e+00 4.064584425612868017e+02
2.370000000000269225e+00 4.022878659686388687e+02
2.390000000000268798e+00 3.997512032134470701e+02
2.410000000000268372e+00 3.951436612606929657e+02
2.430000000000267946e+00 3.868922508902391542e+02
2.450000000000267519e+00 3.837316875692271196e+02
2.470000000000267093e+00 3.784189128284882031e+02
2.490000000000266667e+00 3.724149810685425450e+02
2.510000000000266240e+00 3.707287230846675357e+02
2.530000000000265814e+00 3.639690842071490238e+02
2.550000000000265388e+00 3.614974009894934284e+02
2.570000000000264961e+00 3.535845663205170695e+02
2.590000000000264535e+00 3.506945139822959163e+02
2.610000000000264109e+00 3.442927406862762041e+02
2.630000000000263682e+00 3.367844604544580420e+02
2.650000000000263256e+00 3.350508438052171414e+02
2.670000000000262830e+00 3.301220888416170851e+02
2.690000000000262403e+00 3.267667791649470814e+02
2.710000000000261977e+00 3.217573167298997419e+02
2.730000000000261551e+00 3.155266641300736978e+02
2.750000000000261124e+00 3.125538611885617115e+02
2.770000000000260698e+00 3.080617052464210701e+02
2.790000000000260272e+00 3.040323899590651990e+02
2.810000000000259845e+00 3.001909025299995619e+02
2.830000000000259419e+00 2.931868616250858395e+02
2.850000000000258993e+00 2.910433650949534581e+02
2.870000000000258567e+00 2.847777695545623828e+02
2.890000000000258140e+00 2.827672926049672242e+02
2.910000000000257714e+00 2.778253240694037345e+02
2.930000000000257288e+00 2.740944415787669755e+02
2.950000000000256861e+00 2.683402915743857307e+02
2.970000000000256435e+00 2.669378908016754508e+02
2.990000000000256009e+00 2.620888005305051252e+02
3.010000000000255582e+00 2.591420978220203324e+02
3.030000000000255156e+00 2.528965419815788778e+02
3.050000000000254730e+00 2.503810498847005590e+02
3.070000000000254303e+00 2.470592146611587054e+02
3.090000000000253877e+00 2.429465414505786214e+02
3.110000000000253451e+00 2.398508252130827145e+02
3.130000000000253024e+00 2.370570624229814314e+02
3.150000000000252598e+00 2.312300206733404195e+02
3.170000000000252172e+00 2.288564554387607757e+02
3.190000000000251745e+00 2.241961667468874850e+02
3.210000000000251319e+00 2.220755885484302610e+02
3.230000000000250893e+00 2.188470691051832659e+02
3.250000000000250466e+00 2.171356671050675686e+02
3.270000000000250040e+00 2.127734408112409312e+02
3.290000000000249614e+00 2.086296892578126005e+02
3.310000000000249187e+00 2.059758623797629298e+02
3.330000000000248761e+00 2.013360305500104062e+02
3.350000000000248335e+00 2.002962919016197816e+02
3.370000000000247908e+00 1.971830380512243153e+02
3.390000000000247482e+00 1.942417836977308241e+02
3.410000000000247056e+00 1.915284025300381927e+02
3.430000000000246629e+00 1.873269506515856904e+02
3.450000000000246203e+00 1.849133079978844592e+02
3.470000000000245777e+00 1.819453573597230616e+02
3.490000000000245350e+00 1.790365286001894276e+02
3.510000000000244924e+00 1.775408101209679046e+02
3.530000000000244498e+00 1.747681714183931092e+02
3.550000000000244071e+00 1.708307207899993898e+02
3.570000000000243645e+00 1.693296849161063449e+02
3.590000000000243219e+00 1.654797771024131805e+02
3.610000000000242792e+00 1.642601108791893125e+02
3.630000000000242366e+00 1.609465860296768369e+02
3.650000000000241940e+00 1.595392758108699240e+02
3.670000000000241513e+00 1.562048248085414457e+02
3.690000000000241087e+00 1.550163427283412432e+02
3.710000000000240661e+00 1.526029025784172859e+02
3.730000000000240234e+00 1.506145036240134516e+02
3.750000000000239808e+00 1.483599483665482524e+02
3.770000000000239382e+00 1.459004885251208066e+02
3.790000000000238956e+00 1.438337452677178021e+02
3.810000000000238529e+00 1.416585726197719453e+02
3.830000000000238103e+00 1.398255297610158721e+02
3.850000000000237677e+00 1.372286092229825840e+02
3.870000000000237250e+00 1.363824646279480248e+02
3.890000000000236824e+00 1.333013802914652501e+02
3.910000000000236398e+00 1.320305452293521284e+02
3.930000000000235971e+00 1.306179310566029983e+02
3.950000000000235545e+00 1.288139378046778916e+02
3.970000000000235119e+00 1.261577993234961781e+02
3.990000000000234692e+00 1.260607685720277544e+02
4.010000000000234266e+00 1.235016560942277692e+02
4.030000000000233840e+00 1.215043672087279276e+02
4.050000000000233413e+00 1.210292921406648503e+02
4.070000000000232987e+00 1.186913587501970966e+02
4.090000000000232561e+00 1.172992694624654604e+02
4.110000000000232134e+00 1.151673081483973249e+02
4.130000000000231708e+00 1.138260868784966817e+02
4.150000000000231282e+00 1.122587283347961460e+02
4.170000000000230855e+00 1.104044001995013389e+02
4.190000000000230429e+00 1.094341539277794055e+02
4.210000000000230003e+00 1.079186180838973712e+02
4.230000000000229576e+00 1.063009620524867671e+02
4.250000000000229150e+00 1.046593928232963009e+02
4.270000000000228724e+00 1.044827117880576708e+02
4.290000000000228297e+00 1.022801290797634266e+02
4.310000000000227871e+00 1.010881652313673413e+02
4.330000000000227445e+00 9.997886063368552811e+01
4.350000000000227018e+00 9.933240383332314138e+01
4.370000000000226592e+00 9.684569812880526740e+01
4.390000000000226166e+00 9.615475021836377323e+01
4.410000000000225739e+00 9.539914210657909166e+01
4.430000000000225313e+00 9.317180161656423820e+01
4.450000000000224887e+00 9.338655980262227274e+01
4.470000000000224460e+00 9.169869012243586326e+01
4.490000000000224034e+00 9.033459134536865065e+01
4.510000000000223608e+00 8.913208910529168350e+01
4.530000000000223181e+00 8.889814211131181310e+01
4.550000000000222755e+00 8.800904344775112520e+01
4.570000000000222329e+00 8.610151675370214264e+01
4.590000000000221902e+00 8.554867625318435387e+01
4.610000000000221476e+00 8.411321301838640352e+01
4.630000000000221050e+00 8.339919580485404538e+01
4.650000000000220624e+00 8.181340988486104493e+01
4.670000000000220197e+00 8.133427994101474212e+01
4.690000000000219771e+00 8.073254173632733455e+01
4.710000000000219345e+00 7.940039891184851228e+01
4.730000000000218918e+00 7.844261101141458425e+01
4.750000000000218492e+00 7.771630402124540637e+01
4.770000000000218066e+00 7.702493544425448135e+01
4.790000000000217639e+00 7.614456893566645590e+01
4.810000000000217213e+00 7.501751996727743688e+01
4.830000000000216787e+00 7.446083632163453103e+01
4.850000000000216360e+00 7.366874533645381007e+01
4.870000000000215934e+00 7.286092172643282083e+01
4.890000000000215508e+00 7.194008411646085221e+01
4.910000000000215081e+00 7.115011209444735130e+01
4.930000000000214655e+00 7.026614746960554214e+01
4.950000000000214229e+00 7.002624747511983117e+01
4.970000000000213802e+00 6.865438072689724436e+01
4.990000000000213376e+00 6.857050222019734065e+01
5.010000000000212950e+00 6.739679733638158154e+01
5.030000000000212523e+00 6.693892389332700077e+01
5.050000000000212097e+00 6.591011503800734772e+01
5.070000000000211671e+00 6.570469702645445409e+01
5.090000000000211244e+00 6.476780415062074781e+01
5.110000000000210818e+00 6.462213393868299249e+01
5.130000000000210392e+00 6.343772658694245337e+01
5.150000000000209965e+00 6.315680910054535957e+01
5.170000000000209539e+00 6.327725852947838803e+01
5.190000000000209113e+00 6.172923443925206755e+01
5.210000000000208686e+00 6.165039461456487402e+01
5.230000000000208260e+00 6.109644182106379873e+01
5.250000000000207834e+00 6.025403488544660036e+01
5.270000000000207407e+00 6.012701170963793373e+01
5.290000000000206981e+00 6.009497779583416843e+01
5.310000000000206555e+00 5.897046760521337916e+01
5.330000000000206128e+00 5.847579536158789182e+01
5.350000000000205702e+00 5.890386892001478003e+01
5.370000000000205276e+00 5.860438952143612568e+01
5.390000000000204849e+00 5.763277142239324036e+01
5.410000000000204423e+00 5.822179838638307814e+01
5.430000000000203997e+00 5.740545960568650230e+01
5.450000000000203570e+00 5.736057060711819133e+01
5.470000000000203144e+00 5.735075937078556052e+01
5.490000000000202718e+00 5.691641430876138230e+01
5.510000000000202292e+00 5.728186254013320422e+01
5.530000000000201865e+00 5.708166436027607915e+01
5.550000000000201439e+00 5.684166863285357607e+01
5.570000000000201013e+00 5.741119239181110601e+01
5.590000000000200586e+00 5.732177503650176220e+01
5.610000000000200160e+00 5.720639431813770415e+01
5.630000000000199734e+00 5.792027733644513177e+01
5.650000000000199307e+00 5.762973237090351830e+01
5.670000000000198881e+00 5.816649363912325299e+01
5.690000000000198455e+00 5.779000234232140087e+01
5.710000000000198028e+00 5.880536670685916789e+01
5.730000000000197602e+00 5.857015925554308922e+01
5.750000000000197176e+00 5.949087275538727937e+01
5.770000000000196749e+00 5.962984230193305279e+01
5.790000000000196323e+00 6.032161609033914829e+01
5.810000000000195897e+00 6.096315010089939790e+01
5.830000000000195470e+00 6.151555854848263749e+01
5.850000000000195044e+00 6.258874162973473432e+01
5.870000000000194618e+00 6.332277032532842043e+01
5.890000000000194191e+00 6.392017482985011867e+01
5.910000000000193765e+00 6.505612343061071101e+01
5.930000000000193339e+00 6.594934485336790431e+01
5.950000000000192912e+00 6.709821513263520387e+01
5.970000000000192486e+00 6.785674684208501617e+01
5.990000000000192060e+00 6.922288313615256072e+01
6.010000000000191633e+00 7.054698420997790720e+01
6.030000000000191207e+00 7.213222131640335988e+01
6.050000000000190781e+00 7.274585249531678244e+01
6.070000000000190354e+00 7.392569113775772394e+01
6.090000000000189928e+00 7.543561659980414902e+01
6.110000000000189502e+00 7.657318283056147834e+01
6.130000000000189075e+00 7.885449678975967913e+01
6.150000000000188649e+00 7.964369412408805715e+01
6.170000000000188223e+00 8.164369095452887848e+01
6.190000000000187796e+00 8.279192151817667877e+01
6.210000000000187370e+00 8.499995753034602330e+01
6.230000000000186944e+00 8.648233040393337490e+01
6.250000000000186517e+00 8.907270239914674903e+01
6.270000000000186091e+00 9.003467606981079996e+01
6.290000000000185665e+00 9.164936055446814578e+01
6.310000000000185238e+00 9.443838215237911982e+01
6.330000000000184812e+00 9.556116367382746546e+01
6.350000000000184386e+00 9.782567859094575624e+01
6.370000000000183960e+00 9.963629377042279600e+01
6.390000000000183533e+00 1.021161101970693181e+02
6.410000000000183107e+00 1.041435569007184085e+02
6.430000000000182681e+00 1.056511580187178083e+02
6.450000000000182254e+00 1.074836373389922954e+02
6.470000000000181828e+00 1.100765876103514529e+02
6.490000000000181402e+00 1.119820085751365752e+02
6.510000000000180975e+00 1.144150904452259425e+02
6.530000000000180549e+00 1.159337570866618563e+02
6.550000000000180123e+00 1.180108681699704505e+02
6.570000000000179696e+00 1.198245651406765404e+02
6.590000000000179270e+00 1.218439498641614307e+02
6.610000000000178844e+00 1.245047324000852882e+02
6.630000000000178417e+00 1.257066135843400332e+02
6.650000000000177991e+00 1.285083995577408587e+02
6.670000000000177565e+00 1.293812375928714005e+02
6.690000000000177138e+00 1.321637731482541085e+02
6.710000000000176712e+00 1.334857404908335070e+02
6.730000000000176286e+00 1.343698678566801732e+02
6.750000000000175859e+00 1.371749655941053732e+02
6.770000000000175433e+00 1.386399511254878121e+02
6.790000000000175007e+00 1.406162629540872615e+02
6.810000000000174580e+00 1.421922076621350755e+02
6.830000000000174154e+00 1.427860344100554357e+02
6.850000000000173728e+00 1.448905641760372021e+02
6.870000000000173301e+00 1.463558759653647598e+02
6.890000000000172875e+00 1.471256139505869669e+02
6.910000000000172449e+00 1.490952483444875725e+02
6.930000000000172022e+00 1.498534568134106451e+02
6.950000000000171596e+00 1.503891682569049806e+02
6.970000000000171170e+00 1.509578025585803402e+02
6.990000000000170743e+00 1.524648541755926772e+02
7.010000000000170317e+00 1.525714338953555114e+02
7.030000000000169891e+00 1.538750325725214054e+02
7.050000000000169464e+00 1.541139841955521490e+02
7.070000000000169038e+00 1.550949147542995945e+02
7.090000000000168612e+00 1.556798841910552085e+02
7.110000000000168185e+00 1.560576652367499264e+02
7.130000000000167759e+00 1.576924460338204881e+02
7.150000000000167333e+00 1.568160244973462625e+02
7.170000000000166906e+00 1.579244252264739430e+02
7.190000000000166480e+00 1.575562592112109712e+02
7.210000000000166054e+00 1.581829759502595891e+02
7.230000000000165628e+00 1.578764018222357777e+02
7.250000000000165201e+00 1.578923970527955305e+02
7.270000000000164775e+00 1.579333748344544688e+02
7.290000000000164349e+00 1.573953180515777035e+02
7.310000000000163922e+00 1.582400509384425504e+02
7.330000000000163496e+00 1.575666247891788316e+02
7.350000000000163070e+00 1.577474413799438366e+02
7.370000000000162643e+00 1.572693925313387524e+02
7.390000000000162217e+00 1.563110254179327967e+02
7.410000000000161791e+00 1.568732265441285278e+02
7.430000000000161364e+00 1.556740031583939299e+02
7.450000000000160938e+00 1.560333904027635299e+02
7.470000000000160512e+00 1.544330426679273387e+02
7.490000000000160085e+00 1.539794805391715897e+02
7.510000000000159659e+00 1.532144371029054923e+02
7.530000000000159233e+00 1.534165486115684303e+02
7.550000000000158806e+00 1.519287051607310275e+02
7.570000000000158380e+00 1.526431120516236035e+02
7.590000000000157954e+00 1.512292542071811852e+02
7.610000000000157527e+00 1.510135204696197491e+02
7.630000000000157101e+00 1.504028065724372425e+02
7.650000000000156675e+00 1.490727216032893239e+02
7.670000000000156248e+00 1.484950705572892105e+02
7.690000000000155822e+00 1.488093085045601640e+02
7.710000000000155396e+00 1.473755623952826568e+02
7.730000000000154969e+00 1.469814810598211920e+02
7.750000000000154543e+00 1.458175582677579030e+02
7.770000000000154117e+00 1.454448037364502966e+02
7.790000000000153690e+00 1.448330447343760454e+02
7.810000000000153264e+00 1.441870432944146501e+02
7.830000000000152838e+00 1.431481480177275500e+02
7.850000000000152411e+00 1.423867349227143961e+02
7.870000000000151985e+00 1.419629735855926924e+02
7.890000000000151559e+00 1.415146453211989979e+02
7.910000000000151132e+00 1.407516353466530745e+02
7.930000000000150706e+00 1.404505996477406882e+02
7.950000000000150280e+00 1.390988626048080334e+02
7.970000000000149853e+00 1.384127021360083063e+02
