# Redshift		Merger Rate Density [Gpc^-3yr^-1]
1.000000000031931770e-02 7.591328098050924211e+01
3.000000000031888964e-02 7.936009773233634235e+01
5.000000000031846331e-02 8.331116055274564758e+01
7.000000000031804392e-02 8.752810349084911934e+01
9.000000000031761760e-02 9.111881081609173805e+01
1.100000000003171913e-01 9.580031313002147897e+01
1.300000000003167511e-01 9.909956799375581227e+01
1.500000000003163247e-01 1.046077374065311716e+02
1.700000000003158984e-01 1.080041967886864427e+02
1.900000000003154721e-01 1.127672338186817029e+02
2.100000000003150458e-01 1.167023173461536913e+02
2.300000000003146194e-01 1.213414819735124865e+02
2.500000000003141931e-01 1.268806417637909192e+02
2.700000000003137668e-01 1.296621725845091930e+02
2.900000000003133405e-01 1.365152498036056841e+02
3.100000000003129141e-01 1.401155314777448666e+02
3.300000000003124878e-01 1.463394839301020056e+02
3.500000000003120615e-01 1.510123120127369418e+02
3.700000000003116352e-01 1.572231542547034735e+02
3.900000000003112088e-01 1.617900587044786960e+02
4.100000000003107825e-01 1.672777406599184644e+02
4.300000000003103562e-01 1.724388293412881126e+02
4.500000000003099299e-01 1.777932749383693647e+02
4.700000000003095035e-01 1.853500610536708848e+02
4.900000000003090772e-01 1.898013963744201646e+02
5.100000000003086509e-01 1.955052980303653669e+02
5.300000000003082246e-01 2.015428162683817561e+02
5.500000000003077982e-01 2.089152162621806212e+02
5.700000000003073719e-01 2.144931888743142565e+02
5.900000000003069456e-01 2.208379137775275467e+02
6.100000000003065193e-01 2.259495379818546894e+02
6.300000000003060929e-01 2.350685301138534555e+02
6.500000000003056666e-01 2.413788656682405644e+02
6.700000000003052403e-01 2.467564178789927212e+02
6.900000000003048140e-01 2.516202707051859591e+02
7.100000000003043876e-01 2.593745659429903867e+02
7.300000000003039613e-01 2.661419462405945069e+02
7.500000000003035350e-01 2.735222015944050895e+02
7.700000000003031086e-01 2.793000028420265721e+02
7.900000000003026823e-01 2.840598598778898349e+02
8.100000000003022560e-01 2.941516052283815270e+02
8.300000000003018297e-01 3.001464506334793896e+02
8.500000000003014033e-01 3.059660932444579089e+02
8.700000000003009770e-01 3.143625945037721863e+02
8.900000000003005507e-01 3.218978081895903074e+02
9.100000000003001244e-01 3.254078595231213171e+02
9.300000000002996980e-01 3.335363897175174657e+02
9.500000000002992717e-01 3.419034759304757927e+02
9.700000000002988454e-01 3.482636658312972600e+02
9.900000000002984191e-01 3.527833297283963816e+02
1.010000000000297993e+00 3.635095199206086249e+02
1.030000000000297566e+00 3.686543671672574192e+02
1.050000000000297140e+00 3.748042815903373253e+02
1.070000000000296714e+00 3.828508916236323785e+02
1.090000000000296287e+00 3.892356566372592397e+02
1.110000000000295861e+00 3.940679844968889824e+02
1.130000000000295435e+00 4.010151994449855124e+02
1.150000000000295008e+00 4.074513238104390780e+02
1.170000000000294582e+00 4.155731528160738435e+02
1.190000000000294156e+00 4.220762276830159863e+02
1.210000000000293729e+00 4.267550479354088111e+02
1.230000000000293303e+00 4.330893561945461556e+02
1.250000000000292877e+00 4.384518809014074350e+02
1.270000000000292451e+00 4.442307886597260449e+02
1.290000000000292024e+00 4.519925569806492831e+02
1.310000000000291598e+00 4.560021154880354288e+02
1.330000000000291172e+00 4.619062344400589382e+02
1.350000000000290745e+00 4.667640671054684276e+02
1.370000000000290319e+00 4.702579691368286490e+02
1.390000000000289893e+00 4.764059780633807577e+02
1.410000000000289466e+00 4.815293024824225654e+02
1.430000000000289040e+00 4.866028076431503564e+02
1.450000000000288614e+00 4.911991615610538702e+02
1.470000000000288187e+00 4.927167006541289993e+02
1.490000000000287761e+00 4.962489658251495257e+02
1.510000000000287335e+00 5.000602327344500395e+02
1.530000000000286908e+00 5.052701306334648166e+02
1.550000000000286482e+00 5.071260899093100534e+02
1.570000000000286056e+00 5.115420289611636235e+02
1.590000000000285629e+00 5.149941153353960317e+02
1.610000000000285203e+00 5.160801769400871990e+02
1.630000000000284777e+00 5.215165482673912720e+02
1.650000000000284350e+00 5.285159839291245589e+02
1.670000000000283924e+00 5.265002248177909223e+02
1.690000000000283498e+00 5.331292583880608618e+02
1.710000000000283071e+00 5.291598360337972053e+02
1.730000000000282645e+00 5.287968037905239953e+02
1.750000000000282219e+00 5.360753332100312036e+02
1.770000000000281792e+00 5.357305981353493962e+02
1.790000000000281366e+00 5.382610589110469164e+02
1.810000000000280940e+00 5.350504434968592022e+02
1.830000000000280513e+00 5.312309216753429837e+02
1.850000000000280087e+00 5.289313180062117681e+02
1.870000000000279661e+00 5.285204854238712642e+02
1.890000000000279234e+00 5.234902728452381098e+02
1.910000000000278808e+00 5.290563029842843434e+02
1.930000000000278382e+00 5.243529105203315339e+02
1.950000000000277955e+00 5.210124329784928250e+02
1.970000000000277529e+00 5.188728053698125677e+02
1.990000000000277103e+00 5.148451362512134892e+02
2.010000000000276899e+00 5.144732338576718575e+02
2.030000000000276472e+00 5.073671303412240263e+02
2.050000000000276046e+00 5.020351374435931575e+02
2.070000000000275620e+00 4.992470517149768057e+02
2.090000000000275193e+00 4.928895371961939418e+02
2.110000000000274767e+00 4.900915514357821507e+02
2.130000000000274341e+00 4.875965411913870184e+02
2.150000000000273914e+00 4.844341715460034266e+02
2.170000000000273488e+00 4.799835001786390762e+02
2.190000000000273062e+00 4.754848756606173197e+02
2.210000000000272635e+00 4.708007790959499630e+02
2.230000000000272209e+00 4.673644918652673255e+02
2.250000000000271783e+00 4.635891535209015046e+02
2.270000000000271356e+00 4.555898340725340177e+02
2.290000000000270930e+00 4.523318949230669546e+02
2.310000000000270504e+00 4.472098445625493355e+02
2.330000000000270077e+00 4.460031437780966712e+02
2.350000000000269651e+00 4.364486701380528757e+02
2.370000000000269225e+00 4.328161798277179741e+02
2.390000000000268798e+00 4.273320837381264710e+02
2.410000000000268372e+00 4.222684311144424214e+02
2.430000000000267946e+00 4.177303572716724602e+02
2.450000000000267519e+00 4.112433851394221165e+02
2.470000000000267093e+00 4.098235132470566668e+02
2.490000000000266667e+00 4.023068299406641017e+02
2.510000000000266240e+00 3.951461989670760886e+02
2.530000000000265814e+00 3.905027015617860684e+02
2.550000000000265388e+00 3.849983082960453658e+02
2.570000000000264961e+00 3.802745802186199171e+02
2.590000000000264535e+00 3.777335933200319005e+02
2.610000000000264109e+00 3.710800637558292010e+02
2.630000000000263682e+00 3.624769224110106052e+02
2.650000000000263256e+00 3.621679362460043876e+02
2.670000000000262830e+00 3.546589719497230249e+02
2.690000000000262403e+00 3.498993514313733613e+02
2.710000000000261977e+00 3.438444433545574270e+02
2.730000000000261551e+00 3.397211717110916425e+02
2.750000000000261124e+00 3.359794140471282162e+02
2.770000000000260698e+00 3.305705713181935153e+02
2.790000000000260272e+00 3.234181934362296715e+02
2.810000000000259845e+00 3.197605702984706113e+02
2.830000000000259419e+00 3.150995897272312050e+02
2.850000000000258993e+00 3.102709168777244599e+02
2.870000000000258567e+00 3.038306983637316421e+02
2.890000000000258140e+00 3.009301901858868860e+02
2.910000000000257714e+00 2.951135197404381643e+02
2.930000000000257288e+00 2.910650981996347468e+02
2.950000000000256861e+00 2.868274047403783698e+02
2.970000000000256435e+00 2.833133118147205209e+02
2.990000000000256009e+00 2.793676997306743033e+02
3.010000000000255582e+00 2.744294817391576089e+02
3.030000000000255156e+00 2.699741448129784658e+02
3.050000000000254730e+00 2.664077730788791314e+02
3.070000000000254303e+00 2.635220268724379480e+02
3.090000000000253877e+00 2.596391009613888059e+02
3.110000000000253451e+00 2.552130801475331054e+02
3.130000000000253024e+00 2.515889029635376914e+02
3.150000000000252598e+00 2.483496147984658649e+02
3.170000000000252172e+00 2.462704418090628451e+02
3.190000000000251745e+00 2.419857515507917469e+02
3.210000000000251319e+00 2.396557909328638516e+02
3.230000000000250893e+00 2.339261003827579941e+02
3.250000000000250466e+00 2.294090150412728519e+02
3.270000000000250040e+00 2.268162422250905763e+02
3.290000000000249614e+00 2.236481737166770927e+02
3.310000000000249187e+00 2.211410450841437410e+02
3.330000000000248761e+00 2.181574974042245003e+02
3.350000000000248335e+00 2.149479982780547402e+02
3.370000000000247908e+00 2.101629396863371255e+02
3.390000000000247482e+00 2.059272993768404092e+02
3.410000000000247056e+00 2.030903805022785207e+02
3.430000000000246629e+00 1.990540389331029587e+02
3.450000000000246203e+00 1.970936533531939290e+02
3.470000000000245777e+00 1.944557465900589364e+02
3.490000000000245350e+00 1.916746722662781792e+02
3.510000000000244924e+00 1.876042684284009852e+02
3.530000000000244498e+00 1.850896365076135055e+02
3.550000000000244071e+00 1.826036921213369340e+02
3.570000000000243645e+00 1.814164788983343612e+02
3.590000000000243219e+00 1.788864485893018355e+02
3.610000000000242792e+00 1.755154509077334239e+02
3.630000000000242366e+00 1.730512375412616848e+02
3.650000000000241940e+00 1.707175411291973148e+02
3.670000000000241513e+00 1.687960480377464876e+02
3.690000000000241087e+00 1.654120628916431599e+02
3.710000000000240661e+00 1.638324109875642591e+02
3.730000000000240234e+00 1.607450756365896609e+02
3.750000000000239808e+00 1.579698077808859011e+02
3.770000000000239382e+00 1.552706128901269551e+02
3.790000000000238956e+00 1.537442234136298964e+02
3.810000000000238529e+00 1.523042489627522116e+02
3.830000000000238103e+00 1.482915062044581305e+02
3.850000000000237677e+00 1.476714191936653719e+02
3.870000000000237250e+00 1.456797063968174371e+02
3.890000000000236824e+00 1.444165960113717233e+02
3.910000000000236398e+00 1.417540433335836667e+02
3.930000000000235971e+00 1.400016743080184938e+02
3.950000000000235545e+00 1.384992355220456375e+02
3.970000000000235119e+00 1.376458707996376347e+02
3.990000000000234692e+00 1.354900686345890790e+02
4.010000000000234266e+00 1.331457923830250536e+02
4.030000000000233840e+00 1.311604074983352461e+02
4.050000000000233413e+00 1.309049632292958734e+02
4.070000000000232987e+00 1.285145548522535535e+02
4.090000000000232561e+00 1.266267913910425023e+02
4.110000000000232134e+00 1.256814456389524679e+02
4.130000000000231708e+00 1.247485885679767676e+02
4.150000000000231282e+00 1.229300417875379594e+02
4.170000000000230855e+00 1.204975930219494273e+02
4.190000000000230429e+00 1.190824204004047573e+02
4.210000000000230003e+00 1.170582792268448742e+02
4.230000000000229576e+00 1.167771170922124497e+02
4.250000000000229150e+00 1.144334763917764803e+02
4.270000000000228724e+00 1.136413974649442622e+02
4.290000000000228297e+00 1.113041646859981881e+02
4.310000000000227871e+00 1.100565756746945993e+02
4.330000000000227445e+00 1.089448895352816038e+02
4.350000000000227018e+00 1.076462264471462476e+02
4.370000000000226592e+00 1.055286331202759271e+02
4.390000000000226166e+00 1.041138123531060700e+02
4.410000000000225739e+00 1.018309583958005646e+02
4.430000000000225313e+00 1.007195065932660327e+02
4.450000000000224887e+00 9.985761519984190215e+01
4.470000000000224460e+00 9.787167810646060673e+01
4.490000000000224034e+00 9.798808033806463413e+01
4.510000000000223608e+00 9.626336884981279240e+01
4.530000000000223181e+00 9.502565991052750860e+01
4.550000000000222755e+00 9.360004216721571879e+01
4.570000000000222329e+00 9.358835570639723755e+01
4.590000000000221902e+00 9.235710242315106200e+01
4.610000000000221476e+00 9.065896290014254078e+01
4.630000000000221050e+00 8.986668202867339517e+01
4.650000000000220624e+00 8.872621874319898438e+01
4.670000000000220197e+00 8.755437862688420125e+01
4.690000000000219771e+00 8.667448613731149010e+01
4.710000000000219345e+00 8.568106745134359414e+01
4.730000000000218918e+00 8.379995700054374197e+01
4.750000000000218492e+00 8.354965170618200432e+01
4.770000000000218066e+00 8.219188558154966984e+01
4.790000000000217639e+00 8.123888489413117497e+01
4.810000000000217213e+00 8.025944883576060818e+01
4.830000000000216787e+00 7.890439231486146809e+01
4.850000000000216360e+00 7.764970972941026162e+01
4.870000000000215934e+00 7.699789602668872135e+01
4.890000000000215508e+00 7.587193512466826917e+01
4.910000000000215081e+00 7.449274893326206382e+01
4.930000000000214655e+00 7.388265853698538876e+01
4.950000000000214229e+00 7.284890930765064354e+01
4.970000000000213802e+00 7.093033313546753504e+01
4.990000000000213376e+00 7.049459655007763104e+01
5.010000000000212950e+00 6.964267443340860098e+01
5.030000000000212523e+00 6.888719226638974646e+01
5.050000000000212097e+00 6.752894705631912586e+01
5.070000000000211671e+00 6.659317914755612833e+01
5.090000000000211244e+00 6.575382413127799452e+01
5.110000000000210818e+00 6.544534072815237380e+01
5.130000000000210392e+00 6.437725043821913573e+01
5.150000000000209965e+00 6.315369346818192042e+01
5.170000000000209539e+00 6.284939451477965378e+01
5.190000000000209113e+00 6.206193659841115817e+01
5.210000000000208686e+00 6.068925388035648183e+01
5.230000000000208260e+00 6.023508016357943262e+01
5.250000000000207834e+00 5.911120061119343205e+01
5.270000000000207407e+00 5.856274945353874983e+01
5.290000000000206981e+00 5.830222057482373543e+01
5.310000000000206555e+00 5.756093024996820162e+01
5.330000000000206128e+00 5.692782160776861389e+01
5.350000000000205702e+00 5.611671527273944804e+01
5.370000000000205276e+00 5.551491365367859743e+01
5.390000000000204849e+00 5.466215187602525560e+01
5.410000000000204423e+00 5.455101495947391754e+01
5.430000000000203997e+00 5.396287170470272088e+01
5.450000000000203570e+00 5.312331296784688561e+01
5.470000000000203144e+00 5.234466215164157887e+01
5.490000000000202718e+00 5.210739895713612668e+01
5.510000000000202292e+00 5.123000207788350480e+01
5.530000000000201865e+00 5.010606162738120162e+01
5.550000000000201439e+00 4.987915767580990689e+01
5.570000000000201013e+00 4.917271600766773076e+01
5.590000000000200586e+00 4.885615534538674609e+01
5.610000000000200160e+00 4.832599035681001709e+01
5.630000000000199734e+00 4.804063531501663675e+01
5.650000000000199307e+00 4.755731487309257943e+01
5.670000000000198881e+00 4.720354922323207347e+01
5.690000000000198455e+00 4.612772717398166122e+01
5.710000000000198028e+00 4.601773968261110781e+01
5.730000000000197602e+00 4.543478516046319271e+01
5.750000000000197176e+00 4.519286931367033588e+01
5.770000000000196749e+00 4.441845922521439149e+01
5.790000000000196323e+00 4.395714593368511913e+01
5.810000000000195897e+00 4.365590694040890440e+01
5.830000000000195470e+00 4.328335149932759407e+01
5.850000000000195044e+00 4.308305937905861072e+01
5.870000000000194618e+00 4.258639536184386287e+01
5.890000000000194191e+00 4.260881276997933043e+01
5.910000000000193765e+00 4.193005897493303991e+01
5.930000000000193339e+00 4.269742256857815477e+01
5.950000000000192912e+00 4.168604869376658684e+01
5.970000000000192486e+00 4.207455496548943330e+01
5.990000000000192060e+00 4.162609154732511740e+01
6.010000000000191633e+00 4.119908341031699450e+01
6.030000000000191207e+00 4.122951314559445279e+01
6.050000000000190781e+00 4.098351165018974740e+01
6.070000000000190354e+00 4.065934365423189689e+01
6.090000000000189928e+00 4.100531608092513380e+01
6.110000000000189502e+00 4.064812839453959015e+01
6.130000000000189075e+00 4.063071650034294890e+01
6.150000000000188649e+00 4.039171217677665027e+01
6.170000000000188223e+00 3.989641583264162961e+01
6.190000000000187796e+00 3.985066574065735523e+01
6.210000000000187370e+00 4.013999723098650207e+01
6.230000000000186944e+00 3.952058917655443082e+01
6.250000000000186517e+00 3.974028379011509315e+01
6.270000000000186091e+00 3.963013440414211885e+01
6.290000000000185665e+00 3.954794194648673056e+01
6.310000000000185238e+00 3.973214681393400838e+01
6.330000000000184812e+00 3.949707486739477247e+01
6.350000000000184386e+00 3.938731267741975728e+01
6.370000000000183960e+00 3.911269683694901289e+01
6.390000000000183533e+00 3.921034977423124701e+01
6.410000000000183107e+00 3.968023625445789548e+01
6.430000000000182681e+00 3.944433720801404064e+01
6.450000000000182254e+00 3.947280266302824003e+01
6.470000000000181828e+00 3.941489221944418375e+01
6.490000000000181402e+00 3.993276358931872494e+01
6.510000000000180975e+00 3.973586382831545194e+01
6.530000000000180549e+00 3.950760601852553577e+01
6.550000000000180123e+00 3.961291768974248129e+01
6.570000000000179696e+00 3.950861139657718724e+01
6.590000000000179270e+00 3.941634808770224652e+01
6.610000000000178844e+00 3.953781709177039971e+01
6.630000000000178417e+00 3.954796772949862316e+01
6.650000000000177991e+00 3.928457161333351166e+01
6.670000000000177565e+00 3.970123759185994317e+01
6.690000000000177138e+00 3.924386233119550127e+01
6.710000000000176712e+00 3.942020792071336643e+01
6.730000000000176286e+00 3.895954657087722239e+01
6.750000000000175859e+00 3.920511424337753681e+01
6.770000000000175433e+00 3.887208062689860810e+01
6.790000000000175007e+00 3.917157732404496784e+01
6.810000000000174580e+00 3.873003020447328737e+01
6.830000000000174154e+00 3.927682900053659409e+01
6.850000000000173728e+00 3.925301316416111774e+01
6.870000000000173301e+00 3.892525087225754987e+01
6.890000000000172875e+00 3.891365988592455949e+01
6.910000000000172449e+00 3.863751288739611311e+01
6.930000000000172022e+00 3.854951012206000627e+01
6.950000000000171596e+00 3.849120288792484246e+01
6.970000000000171170e+00 3.845943321871067866e+01
6.990000000000170743e+00 3.802933280444447206e+01
7.010000000000170317e+00 3.774495555599583696e+01
7.030000000000169891e+00 3.825508452455571984e+01
7.050000000000169464e+00 3.765499131864503823e+01
7.070000000000169038e+00 3.769459134861580196e+01
7.090000000000168612e+00 3.741810538058633995e+01
7.110000000000168185e+00 3.729646009890056746e+01
7.130000000000167759e+00 3.697180130673690002e+01
7.150000000000167333e+00 3.710301940120884012e+01
7.170000000000166906e+00 3.664037815740243786e+01
7.190000000000166480e+00 3.654177436277655033e+01
7.210000000000166054e+00 3.609792032500778447e+01
7.230000000000165628e+00 3.612805767543393642e+01
7.250000000000165201e+00 3.625786182369897404e+01
7.270000000000164775e+00 3.611702307823433244e+01
7.290000000000164349e+00 3.531726158059748855e+01
7.310000000000163922e+00 3.548815201098815209e+01
7.330000000000163496e+00 3.526020106424721234e+01
7.350000000000163070e+00 3.486980608551281335e+01
7.370000000000162643e+00 3.496569377568163617e+01
7.390000000000162217e+00 3.499879440475788073e+01
7.410000000000161791e+00 3.431559939974016515e+01
7.430000000000161364e+00 3.424996648388889753e+01
7.450000000000160938e+00 3.378407764317287842e+01
7.470000000000160512e+00 3.399299214630958943e+01
7.490000000000160085e+00 3.352219765392973727e+01
7.510000000000159659e+00 3.376455725344248293e+01
7.530000000000159233e+00 3.330208042011820879e+01
7.550000000000158806e+00 3.296895888340952752e+01
7.570000000000158380e+00 3.327084003202109130e+01
7.590000000000157954e+00 3.298436863659210161e+01
7.610000000000157527e+00 3.256859095007830263e+01
7.630000000000157101e+00 3.280783479816719961e+01
7.650000000000156675e+00 3.248764742332709687e+01
7.670000000000156248e+00 3.252996886636032770e+01
7.690000000000155822e+00 3.238296923624954360e+01
7.710000000000155396e+00 3.203174978969691011e+01
7.730000000000154969e+00 3.200192041570746682e+01
7.750000000000154543e+00 3.175061484115692068e+01
7.770000000000154117e+00 3.182515290874417246e+01
7.790000000000153690e+00 3.166499201887118176e+01
7.810000000000153264e+00 3.199280817434470947e+01
7.830000000000152838e+00 3.157034139170055553e+01
7.850000000000152411e+00 3.143725654331824160e+01
7.870000000000151985e+00 3.151643327643263603e+01
7.890000000000151559e+00 3.142867545718175393e+01
7.910000000000151132e+00 3.151469335359974622e+01
7.930000000000150706e+00 3.092748142351652163e+01
7.950000000000150280e+00 3.110308624286035695e+01
7.970000000000149853e+00 3.112574392758047281e+01
