# Redshift		Merger Rate Density [Gpc^-3yr^-1]
1.000000000031931770e-02 1.318226969954702099e+02
3.000000000031888964e-02 1.385322346953082899e+02
5.000000000031846331e-02 1.444882457478926767e+02
7.000000000031804392e-02 1.510661792145898517e+02
9.000000000031761760e-02 1.577163347292804190e+02
1.100000000003171913e-01 1.644966062959198041e+02
1.300000000003167511e-01 1.717762676521780918e+02
1.500000000003163247e-01 1.787794344792412744e+02
1.700000000003158984e-01 1.856153815500876476e+02
1.900000000003154721e-01 1.933408075276680052e+02
2.100000000003150458e-01 2.014322438365961432e+02
2.300000000003146194e-01 2.078350412812465038e+02
2.500000000003141931e-01 2.172963233640703038e+02
2.700000000003137668e-01 2.246269703631541006e+02
2.900000000003133405e-01 2.326947806393798430e+02
3.100000000003129141e-01 2.418090126174508043e+02
3.300000000003124878e-01 2.486490033730361517e+02
3.500000000003120615e-01 2.582963286902228219e+02
3.700000000003116352e-01 2.656264512143225147e+02
3.900000000003112088e-01 2.746557103821124883e+02
4.100000000003107825e-01 2.836733448614693316e+02
4.300000000003103562e-01 2.924588646693076726e+02
4.500000000003099299e-01 3.008338989466674889e+02
4.700000000003095035e-01 3.109286605381992672e+02
4.900000000003090772e-01 3.195326546462228521e+02
5.100000000003086509e-01 3.308666635532787836e+02
5.300000000003082246e-01 3.383092212390330928e+02
5.500000000003077982e-01 3.504189927943823477e+02
5.700000000003073719e-01 3.583111111510135061e+02
5.900000000003069456e-01 3.677144103986811388e+02
6.100000000003065193e-01 3.790410356538872065e+02
6.300000000003060929e-01 3.873549018130374861e+02
6.500000000003056666e-01 3.970227826723810836e+02
6.700000000003052403e-01 4.095825731533025760e+02
6.900000000003048140e-01 4.191329812769080263e+02
7.100000000003043876e-01 4.297948033026055441e+02
7.300000000003039613e-01 4.414730413649252228e+02
7.500000000003035350e-01 4.493663725877454453e+02
7.700000000003031086e-01 4.617876907623295892e+02
7.900000000003026823e-01 4.725552858832379002e+02
8.100000000003022560e-01 4.825172890190224280e+02
8.300000000003018297e-01 4.937383156118856959e+02
8.500000000003014033e-01 5.030730540026349900e+02
8.700000000003009770e-01 5.147312409399868329e+02
8.900000000003005507e-01 5.283578941520305534e+02
9.100000000003001244e-01 5.364880680099844312e+02
9.300000000002996980e-01 5.467872408223073535e+02
9.500000000002992717e-01 5.589431636263160499e+02
9.700000000002988454e-01 5.721353672986687116e+02
9.900000000002984191e-01 5.792624472182616273e+02
1.010000000000297993e+00 5.890656629060929390e+02
1.030000000000297566e+00 6.020435760796451632e+02
1.050000000000297140e+00 6.118508769540065941e+02
1.070000000000296714e+00 6.192122120667993386e+02
1.090000000000296287e+00 6.326917591663964231e+02
1.110000000000295861e+00 6.425131819348712270e+02
1.130000000000295435e+00 6.532109602701134463e+02
1.150000000000295008e+00 6.626436305838635690e+02
1.170000000000294582e+00 6.747097057660866994e+02
1.190000000000294156e+00 6.824210979838550202e+02
1.210000000000293729e+00 6.926877400196941608e+02
1.230000000000293303e+00 7.034063165956093826e+02
1.250000000000292877e+00 7.114752903196470015e+02
1.270000000000292451e+00 7.187943029640682653e+02
1.290000000000292024e+00 7.298811224539417708e+02
1.310000000000291598e+00 7.372149580180596331e+02
1.330000000000291172e+00 7.450580292547998624e+02
1.350000000000290745e+00 7.540912855287652974e+02
1.370000000000290319e+00 7.617929601716933803e+02
1.390000000000289893e+00 7.678867961183725583e+02
1.410000000000289466e+00 7.761377752301002602e+02
1.430000000000289040e+00 7.806250258600128973e+02
1.450000000000288614e+00 7.933670758937562368e+02
1.470000000000288187e+00 7.988279672737729697e+02
1.490000000000287761e+00 8.030229490345149088e+02
1.510000000000287335e+00 8.083933494686472159e+02
1.530000000000286908e+00 8.142122591765730704e+02
1.550000000000286482e+00 8.198240215431106890e+02
1.570000000000286056e+00 8.245358415789027049e+02
1.590000000000285629e+00 8.286697094683087244e+02
1.610000000000285203e+00 8.330198247215861329e+02
1.630000000000284777e+00 8.372902085933422995e+02
1.650000000000284350e+00 8.403601160221833197e+02
1.670000000000283924e+00 8.447811226999946257e+02
1.690000000000283498e+00 8.481799641130581904e+02
1.710000000000283071e+00 8.519919104291981284e+02
1.730000000000282645e+00 8.549212027238589826e+02
1.750000000000282219e+00 8.569784126754062754e+02
1.770000000000281792e+00 8.578263905036349115e+02
1.790000000000281366e+00 8.596361048031685641e+02
1.810000000000280940e+00 8.622505698877562281e+02
1.830000000000280513e+00 8.582093628307560493e+02
1.850000000000280087e+00 8.591885261942605894e+02
1.870000000000279661e+00 8.582992030845600766e+02
1.890000000000279234e+00 8.606957669709680658e+02
1.910000000000278808e+00 8.556721555282985037e+02
1.930000000000278382e+00 8.576418281128152330e+02
1.950000000000277955e+00 8.556191251272686031e+02
1.970000000000277529e+00 8.530104035894078152e+02
1.990000000000277103e+00 8.514316063892272268e+02
2.010000000000276899e+00 8.498067174863816717e+02
2.030000000000276472e+00 8.477600086060415379e+02
2.050000000000276046e+00 8.413484388737929294e+02
2.070000000000275620e+00 8.413768485162979687e+02
2.090000000000275193e+00 8.352129682638965278e+02
2.110000000000274767e+00 8.342767562660825433e+02
2.130000000000274341e+00 8.288914536149414971e+02
2.150000000000273914e+00 8.259808876760894236e+02
2.170000000000273488e+00 8.217248178474820861e+02
2.190000000000273062e+00 8.121656784149995474e+02
2.210000000000272635e+00 8.074392588741677628e+02
2.230000000000272209e+00 7.987960666685168007e+02
2.250000000000271783e+00 7.915868323470475616e+02
2.270000000000271356e+00 7.857936158365002939e+02
2.290000000000270930e+00 7.794741394240101044e+02
2.310000000000270504e+00 7.701595723532188913e+02
2.330000000000270077e+00 7.626930162761758538e+02
2.350000000000269651e+00 7.562399823875109632e+02
2.370000000000269225e+00 7.479679826885242164e+02
2.390000000000268798e+00 7.410563245195710351e+02
2.410000000000268372e+00 7.325767674325422831e+02
2.430000000000267946e+00 7.246944515742144404e+02
2.450000000000267519e+00 7.166465128307593204e+02
2.470000000000267093e+00 7.074871888562786353e+02
2.490000000000266667e+00 7.006098692638732928e+02
2.510000000000266240e+00 6.938800167883625818e+02
2.530000000000265814e+00 6.846489206605289155e+02
2.550000000000265388e+00 6.788637353175899989e+02
2.570000000000264961e+00 6.678387699644309805e+02
2.590000000000264535e+00 6.608416433092089619e+02
2.610000000000264109e+00 6.540844486432331450e+02
2.630000000000263682e+00 6.450952138985024931e+02
2.650000000000263256e+00 6.371842437811529862e+02
2.670000000000262830e+00 6.274983819004800125e+02
2.690000000000262403e+00 6.220561170568400939e+02
2.710000000000261977e+00 6.148525574555222875e+02
2.730000000000261551e+00 6.055329562087210888e+02
2.750000000000261124e+00 5.986684729850142048e+02
2.770000000000260698e+00 5.901207740399457862e+02
2.790000000000260272e+00 5.826933029113015436e+02
2.810000000000259845e+00 5.761111346010450234e+02
2.830000000000259419e+00 5.684805735100504762e+02
2.850000000000258993e+00 5.594458855166722060e+02
2.870000000000258567e+00 5.538262277451907494e+02
2.890000000000258140e+00 5.454055659774296601e+02
2.910000000000257714e+00 5.358946931261937152e+02
2.930000000000257288e+00 5.289220683055214067e+02
2.950000000000256861e+00 5.238071551303835349e+02
2.970000000000256435e+00 5.166287240888769929e+02
2.990000000000256009e+00 5.060120978190357164e+02
3.010000000000255582e+00 5.025561680671629006e+02
3.030000000000255156e+00 4.931331813739421364e+02
3.050000000000254730e+00 4.874887063755963368e+02
3.070000000000254303e+00 4.800338411990626923e+02
3.090000000000253877e+00 4.739120619317985188e+02
3.110000000000253451e+00 4.668749206838390933e+02
3.130000000000253024e+00 4.601256947758728302e+02
3.150000000000252598e+00 4.528455874618126700e+02
3.170000000000252172e+00 4.462873313309047489e+02
3.190000000000251745e+00 4.412524192215910261e+02
3.210000000000251319e+00 4.335464288208693233e+02
3.230000000000250893e+00 4.274650218922338922e+02
3.250000000000250466e+00 4.226405050221809461e+02
3.270000000000250040e+00 4.151319610203174761e+02
3.290000000000249614e+00 4.097393924609675082e+02
3.310000000000249187e+00 4.041940190489316933e+02
3.330000000000248761e+00 3.972830491710340084e+02
3.350000000000248335e+00 3.919135972159945709e+02
3.370000000000247908e+00 3.864408543450563798e+02
3.390000000000247482e+00 3.802229996106879071e+02
3.410000000000247056e+00 3.743949458876398353e+02
3.430000000000246629e+00 3.694014147112531532e+02
3.450000000000246203e+00 3.626863365907958041e+02
3.470000000000245777e+00 3.578977218443135939e+02
3.490000000000245350e+00 3.519071666880796556e+02
3.510000000000244924e+00 3.479000164963313750e+02
3.530000000000244498e+00 3.424392407035675774e+02
3.550000000000244071e+00 3.376235780256670864e+02
3.570000000000243645e+00 3.329700112303137303e+02
3.590000000000243219e+00 3.285102327564466123e+02
3.610000000000242792e+00 3.230684426406149328e+02
3.630000000000242366e+00 3.189007157036138551e+02
3.650000000000241940e+00 3.131179509478327532e+02
3.670000000000241513e+00 3.095258369635276381e+02
3.690000000000241087e+00 3.049969887306334613e+02
3.710000000000240661e+00 3.012311566843846435e+02
3.730000000000240234e+00 2.963720643759303357e+02
3.750000000000239808e+00 2.912470330962083267e+02
3.770000000000239382e+00 2.879233529252808239e+02
3.790000000000238956e+00 2.831845498941901837e+02
3.810000000000238529e+00 2.793052406022776495e+02
3.830000000000238103e+00 2.750442711517625867e+02
3.850000000000237677e+00 2.708414763903550693e+02
3.870000000000237250e+00 2.675610737264738077e+02
3.890000000000236824e+00 2.632710130734070049e+02
3.910000000000236398e+00 2.592064348671869425e+02
3.930000000000235971e+00 2.556679606190831180e+02
3.950000000000235545e+00 2.511891610476593542e+02
3.970000000000235119e+00 2.477220672018370351e+02
3.990000000000234692e+00 2.433199022979839583e+02
4.010000000000234266e+00 2.405113846965376183e+02
4.030000000000233840e+00 2.364775583281045499e+02
4.050000000000233413e+00 2.327204969768231706e+02
4.070000000000232987e+00 2.296481767945906824e+02
4.090000000000232561e+00 2.262911802035877429e+02
4.110000000000232134e+00 2.229980391324681364e+02
4.130000000000231708e+00 2.199068644991833992e+02
4.150000000000231282e+00 2.159095327704230840e+02
4.170000000000230855e+00 2.126911965003171190e+02
4.190000000000230429e+00 2.103245164622898074e+02
4.210000000000230003e+00 2.067177842733858597e+02
4.230000000000229576e+00 2.039193623054571844e+02
4.250000000000229150e+00 2.012865217467864056e+02
4.270000000000228724e+00 1.984414959852793459e+02
4.290000000000228297e+00 1.954558219637453931e+02
4.310000000000227871e+00 1.930904389816835476e+02
4.330000000000227445e+00 1.899024086104602418e+02
4.350000000000227018e+00 1.881371894477640296e+02
4.370000000000226592e+00 1.846681282332469038e+02
4.390000000000226166e+00 1.819112188452608905e+02
4.410000000000225739e+00 1.807695197334216743e+02
4.430000000000225313e+00 1.769796190992189509e+02
4.450000000000224887e+00 1.750130885730631007e+02
4.470000000000224460e+00 1.723151683099694083e+02
4.490000000000224034e+00 1.700769254993366246e+02
4.510000000000223608e+00 1.676369267502721812e+02
4.530000000000223181e+00 1.655580942584300601e+02
4.550000000000222755e+00 1.632412516175025701e+02
4.570000000000222329e+00 1.614498436329485003e+02
4.590000000000221902e+00 1.589209369692704854e+02
4.610000000000221476e+00 1.573942694332014582e+02
4.630000000000221050e+00 1.549947085465566374e+02
4.650000000000220624e+00 1.530942066872752321e+02
4.670000000000220197e+00 1.504391623415627066e+02
4.690000000000219771e+00 1.491087355773342722e+02
4.710000000000219345e+00 1.463917295948355672e+02
4.730000000000218918e+00 1.451053037496116076e+02
4.750000000000218492e+00 1.425146521440881315e+02
4.770000000000218066e+00 1.412767752466167508e+02
4.790000000000217639e+00 1.395132475621649633e+02
4.810000000000217213e+00 1.374158830520862296e+02
4.830000000000216787e+00 1.359792298161536053e+02
4.850000000000216360e+00 1.339481710121550293e+02
4.870000000000215934e+00 1.322884225668673253e+02
4.890000000000215508e+00 1.299217034530327908e+02
4.910000000000215081e+00 1.285910131338650615e+02
4.930000000000214655e+00 1.272479589766607404e+02
4.950000000000214229e+00 1.253933843015499008e+02
4.970000000000213802e+00 1.234716386625120208e+02
4.990000000000213376e+00 1.223127238640009438e+02
5.010000000000212950e+00 1.204370685720720360e+02
5.030000000000212523e+00 1.191152546110231754e+02
5.050000000000212097e+00 1.175086645667474841e+02
5.070000000000211671e+00 1.151077251786492326e+02
5.090000000000211244e+00 1.139283993622179594e+02
5.110000000000210818e+00 1.129761664983587224e+02
5.130000000000210392e+00 1.116980329328077914e+02
5.150000000000209965e+00 1.100474053010027262e+02
5.170000000000209539e+00 1.087333939773819935e+02
5.190000000000209113e+00 1.070139500320732537e+02
5.210000000000208686e+00 1.057593507795539836e+02
5.230000000000208260e+00 1.042916197208661373e+02
5.250000000000207834e+00 1.032315585286579278e+02
5.270000000000207407e+00 1.012676662798039331e+02
5.290000000000206981e+00 1.003419182303146044e+02
5.310000000000206555e+00 9.870853806338146796e+01
5.330000000000206128e+00 9.751676729337749805e+01
5.350000000000205702e+00 9.677484651448841646e+01
5.370000000000205276e+00 9.520949518983071869e+01
5.390000000000204849e+00 9.424405833224872708e+01
5.410000000000204423e+00 9.368179453723584516e+01
5.430000000000203997e+00 9.240054415622445561e+01
5.450000000000203570e+00 9.090712032768338702e+01
5.470000000000203144e+00 8.989910150864312754e+01
5.490000000000202718e+00 8.897199990662535640e+01
5.510000000000202292e+00 8.793423665753103080e+01
5.530000000000201865e+00 8.692108731133161825e+01
5.550000000000201439e+00 8.523185592634186492e+01
5.570000000000201013e+00 8.449589350369591045e+01
5.590000000000200586e+00 8.347913594188015907e+01
5.610000000000200160e+00 8.263889330182300341e+01
5.630000000000199734e+00 8.162364286932417201e+01
5.650000000000199307e+00 8.056717129476845685e+01
5.670000000000198881e+00 7.955020930951290836e+01
5.690000000000198455e+00 7.855348012826510740e+01
5.710000000000198028e+00 7.771783417895467494e+01
5.730000000000197602e+00 7.704449425680309105e+01
5.750000000000197176e+00 7.588007145271465959e+01
5.770000000000196749e+00 7.587889799993844520e+01
5.790000000000196323e+00 7.398433632694184325e+01
5.810000000000195897e+00 7.333549736246089878e+01
5.830000000000195470e+00 7.211656975546561910e+01
5.850000000000195044e+00 7.141156452184563364e+01
5.870000000000194618e+00 7.006537806767136090e+01
5.890000000000194191e+00 7.017783193668738306e+01
5.910000000000193765e+00 6.902948029878845659e+01
5.930000000000193339e+00 6.836109855222153442e+01
5.950000000000192912e+00 6.748039196785383353e+01
5.970000000000192486e+00 6.680605030221423135e+01
5.990000000000192060e+00 6.655107217240667694e+01
6.010000000000191633e+00 6.485073271424067798e+01
6.030000000000191207e+00 6.438353106011730631e+01
6.050000000000190781e+00 6.379351032951544909e+01
6.070000000000190354e+00 6.316525169833126796e+01
6.090000000000189928e+00 6.245273870052925247e+01
6.110000000000189502e+00 6.186333232710389041e+01
6.130000000000189075e+00 6.135414654742141494e+01
6.150000000000188649e+00 6.036606367599737411e+01
6.170000000000188223e+00 5.986380157876005370e+01
6.190000000000187796e+00 5.914710910036232150e+01
6.210000000000187370e+00 5.871302841816063278e+01
6.230000000000186944e+00 5.801077115346402735e+01
6.250000000000186517e+00 5.723544457485991188e+01
6.270000000000186091e+00 5.656143471291385794e+01
6.290000000000185665e+00 5.590928405054456363e+01
6.310000000000185238e+00 5.557013704677007837e+01
6.330000000000184812e+00 5.488015976059864443e+01
6.350000000000184386e+00 5.427734137315104590e+01
6.370000000000183960e+00 5.363963358161915806e+01
6.390000000000183533e+00 5.325365635744478254e+01
6.410000000000183107e+00 5.280460665585074764e+01
6.430000000000182681e+00 5.195369004630625653e+01
6.450000000000182254e+00 5.163360474691096869e+01
6.470000000000181828e+00 5.117793194755218167e+01
6.490000000000181402e+00 5.048080908778270270e+01
6.510000000000180975e+00 5.029628976063020218e+01
6.530000000000180549e+00 5.009851970787406827e+01
6.550000000000180123e+00 4.884142219104780480e+01
6.570000000000179696e+00 4.879642515404692205e+01
6.590000000000179270e+00 4.844928076367262548e+01
6.610000000000178844e+00 4.775968084492928512e+01
6.630000000000178417e+00 4.775461344506152983e+01
6.650000000000177991e+00 4.694994210720241057e+01
6.670000000000177565e+00 4.673909216314779513e+01
6.690000000000177138e+00 4.635966877391837215e+01
6.710000000000176712e+00 4.596048520020026729e+01
6.730000000000176286e+00 4.588960510350813138e+01
6.750000000000175859e+00 4.488194242348938445e+01
6.770000000000175433e+00 4.496464677512411612e+01
6.790000000000175007e+00 4.429822684045942083e+01
6.810000000000174580e+00 4.383741730767622613e+01
6.830000000000174154e+00 4.381016197090776387e+01
6.850000000000173728e+00 4.325603789777381536e+01
6.870000000000173301e+00 4.283895077123978723e+01
6.890000000000172875e+00 4.268482031473964611e+01
6.910000000000172449e+00 4.234289338350734511e+01
6.930000000000172022e+00 4.207183165059814201e+01
6.950000000000171596e+00 4.185061124730631832e+01
6.970000000000171170e+00 4.142810640661188160e+01
6.990000000000170743e+00 4.108550660360735662e+01
7.010000000000170317e+00 4.074984926824013343e+01
7.030000000000169891e+00 4.070622406790103298e+01
7.050000000000169464e+00 4.039578625557248159e+01
7.070000000000169038e+00 3.999226305190320829e+01
7.090000000000168612e+00 3.955818240685934484e+01
7.110000000000168185e+00 3.962423656723467502e+01
7.130000000000167759e+00 3.930751140891172923e+01
7.150000000000167333e+00 3.921657763345817926e+01
7.170000000000166906e+00 3.866515725349075439e+01
7.190000000000166480e+00 3.855698520775786875e+01
7.210000000000166054e+00 3.854903973429499331e+01
7.230000000000165628e+00 3.828983372417879139e+01
7.250000000000165201e+00 3.826749647974754964e+01
7.270000000000164775e+00 3.787683340351842531e+01
7.290000000000164349e+00 3.765899343344651840e+01
7.310000000000163922e+00 3.746135259901983972e+01
7.330000000000163496e+00 3.719200200576660365e+01
7.350000000000163070e+00 3.709794209571937529e+01
7.370000000000162643e+00 3.684262663042708397e+01
7.390000000000162217e+00 3.681671324033577264e+01
7.410000000000161791e+00 3.639982351785295833e+01
7.430000000000161364e+00 3.667130812226512404e+01
7.450000000000160938e+00 3.631306932420612554e+01
7.470000000000160512e+00 3.651975574494022680e+01
7.490000000000160085e+00 3.598453261624767663e+01
7.510000000000159659e+00 3.595323585347453843e+01
7.530000000000159233e+00 3.576100414469262034e+01
7.550000000000158806e+00 3.560753514294908939e+01
7.570000000000158380e+00 3.574872258428188587e+01
7.590000000000157954e+00 3.527827962279322094e+01
7.610000000000157527e+00 3.530432958591620007e+01
7.630000000000157101e+00 3.504529295790300836e+01
7.650000000000156675e+00 3.524388465383270130e+01
7.670000000000156248e+00 3.525488333532086216e+01
7.690000000000155822e+00 3.523794956608595896e+01
7.710000000000155396e+00 3.505122709400203007e+01
7.730000000000154969e+00 3.500822514974026234e+01
7.750000000000154543e+00 3.488399367670960061e+01
7.770000000000154117e+00 3.489175491735501566e+01
7.790000000000153690e+00 3.464991233866839337e+01
7.810000000000153264e+00 3.475480575406334793e+01
7.830000000000152838e+00 3.452794472884517774e+01
7.850000000000152411e+00 3.446556000026561861e+01
7.870000000000151985e+00 3.442129444471162003e+01
7.890000000000151559e+00 3.441898655325996970e+01
7.910000000000151132e+00 3.445547958301711589e+01
7.930000000000150706e+00 3.436088480229602737e+01
7.950000000000150280e+00 3.438452443598458785e+01
7.970000000000149853e+00 3.429003061271077257e+01
