# Redshift		Merger Rate Density [Gpc^-3yr^-1]
1.000000000031931770e-02 2.828193368545216657e+01
3.000000000031888964e-02 2.979154494091408978e+01
5.000000000031846331e-02 3.108159122722324241e+01
7.000000000031804392e-02 3.284828348688855471e+01
9.000000000031761760e-02 3.430778062313611798e+01
1.100000000003171913e-01 3.583847387734640222e+01
1.300000000003167511e-01 3.768004105198844655e+01
1.500000000003163247e-01 3.926574592454525003e+01
1.700000000003158984e-01 4.069682786028043608e+01
1.900000000003154721e-01 4.248609531460972022e+01
2.100000000003150458e-01 4.427843550563359543e+01
2.300000000003146194e-01 4.613075851446795639e+01
2.500000000003141931e-01 4.793453054313783923e+01
2.700000000003137668e-01 4.996884361049450973e+01
2.900000000003133405e-01 5.197143173219297552e+01
3.100000000003129141e-01 5.405292558872555020e+01
3.300000000003124878e-01 5.610762096092746987e+01
3.500000000003120615e-01 5.818261897298733487e+01
3.700000000003116352e-01 6.071415014013525990e+01
3.900000000003112088e-01 6.276876392494219914e+01
4.100000000003107825e-01 6.508572870926919052e+01
4.300000000003103562e-01 6.747267467267855068e+01
4.500000000003099299e-01 6.948302947132330587e+01
4.700000000003095035e-01 7.197808213318690207e+01
4.900000000003090772e-01 7.428110068078113670e+01
5.100000000003086509e-01 7.669752059603291627e+01
5.300000000003082246e-01 7.907909407433383819e+01
5.500000000003077982e-01 8.142273815415521199e+01
5.700000000003073719e-01 8.385839888725702451e+01
5.900000000003069456e-01 8.671309086341302930e+01
6.100000000003065193e-01 8.911664050967429773e+01
6.300000000003060929e-01 9.180376687183908757e+01
6.500000000003056666e-01 9.458660308847491649e+01
6.700000000003052403e-01 9.738641914825771551e+01
6.900000000003048140e-01 9.996517275577178907e+01
7.100000000003043876e-01 1.025555421636711344e+02
7.300000000003039613e-01 1.052919943195826704e+02
7.500000000003035350e-01 1.081305066298004647e+02
7.700000000003031086e-01 1.107464519699721848e+02
7.900000000003026823e-01 1.135976935544113644e+02
8.100000000003022560e-01 1.166079403098141540e+02
8.300000000003018297e-01 1.194559681668964259e+02
8.500000000003014033e-01 1.220734953138573644e+02
8.700000000003009770e-01 1.256511495318695069e+02
8.900000000003005507e-01 1.280235852362822584e+02
9.100000000003001244e-01 1.308617220088722490e+02
9.300000000002996980e-01 1.336271053789993175e+02
9.500000000002992717e-01 1.365853031918154841e+02
9.700000000002988454e-01 1.397490578923479063e+02
9.900000000002984191e-01 1.424409910602603304e+02
1.010000000000297993e+00 1.452158850216434871e+02
1.030000000000297566e+00 1.481164848442784887e+02
1.050000000000297140e+00 1.510037317641285313e+02
1.070000000000296714e+00 1.542297036069361127e+02
1.090000000000296287e+00 1.566722820190555296e+02
1.110000000000295861e+00 1.596543164599065960e+02
1.130000000000295435e+00 1.625159966930339692e+02
1.150000000000295008e+00 1.649664383372995928e+02
1.170000000000294582e+00 1.678654651542869090e+02
1.190000000000294156e+00 1.710886845826820775e+02
1.210000000000293729e+00 1.734088104577830904e+02
1.230000000000293303e+00 1.768132685167602176e+02
1.250000000000292877e+00 1.781089303036336844e+02
1.270000000000292451e+00 1.815564598474282718e+02
1.290000000000292024e+00 1.840758708136858104e+02
1.310000000000291598e+00 1.861222008269136836e+02
1.330000000000291172e+00 1.884792987961548647e+02
1.350000000000290745e+00 1.912696053235191016e+02
1.370000000000290319e+00 1.929732477519992813e+02
1.390000000000289893e+00 1.960036601957581013e+02
1.410000000000289466e+00 1.973595997807256595e+02
1.430000000000289040e+00 1.997796155311877442e+02
1.450000000000288614e+00 2.018492315216078907e+02
1.470000000000288187e+00 2.044435822228928714e+02
1.490000000000287761e+00 2.056784521734856810e+02
1.510000000000287335e+00 2.073632257194993258e+02
1.530000000000286908e+00 2.091339485321813356e+02
1.550000000000286482e+00 2.104230821038688930e+02
1.570000000000286056e+00 2.123384857238536654e+02
1.590000000000285629e+00 2.135751556527315813e+02
1.610000000000285203e+00 2.163321898146817830e+02
1.630000000000284777e+00 2.167190928843045583e+02
1.650000000000284350e+00 2.184327279437752907e+02
1.670000000000283924e+00 2.181164320903761507e+02
1.690000000000283498e+00 2.203621471872643269e+02
1.710000000000283071e+00 2.211212140875852015e+02
1.730000000000282645e+00 2.218295956292251958e+02
1.750000000000282219e+00 2.222839525408232078e+02
1.770000000000281792e+00 2.225528797957953486e+02
1.790000000000281366e+00 2.229583534315992495e+02
1.810000000000280940e+00 2.238789026044544244e+02
1.830000000000280513e+00 2.234738536267086317e+02
1.850000000000280087e+00 2.221800930996842283e+02
1.870000000000279661e+00 2.226789720156997134e+02
1.890000000000279234e+00 2.223978441829488588e+02
1.910000000000278808e+00 2.231181330996600138e+02
1.930000000000278382e+00 2.218289991549781917e+02
1.950000000000277955e+00 2.218957428907276324e+02
1.970000000000277529e+00 2.218858433247530115e+02
1.990000000000277103e+00 2.239281824968391845e+02
2.010000000000276899e+00 2.217268575360907903e+02
2.030000000000276472e+00 2.209188619397990863e+02
2.050000000000276046e+00 2.191097168825989172e+02
2.070000000000275620e+00 2.195303807068670494e+02
2.090000000000275193e+00 2.169685455371449336e+02
2.110000000000274767e+00 2.189264150880956379e+02
2.130000000000274341e+00 2.163341475462249264e+02
2.150000000000273914e+00 2.157356063960330630e+02
2.170000000000273488e+00 2.135532862671117300e+02
2.190000000000273062e+00 2.126841014002765462e+02
2.210000000000272635e+00 2.122466614404930851e+02
2.230000000000272209e+00 2.097201160054306968e+02
2.250000000000271783e+00 2.088813864880653739e+02
2.270000000000271356e+00 2.069305994294956292e+02
2.290000000000270930e+00 2.046114179143113176e+02
2.310000000000270504e+00 1.997134344100915087e+02
2.330000000000270077e+00 1.946866872234641903e+02
2.350000000000269651e+00 1.940815392868571791e+02
2.370000000000269225e+00 1.917226876442404944e+02
2.390000000000268798e+00 1.886888919541258645e+02
2.410000000000268372e+00 1.861781037666633836e+02
2.430000000000267946e+00 1.829152684494400489e+02
2.450000000000267519e+00 1.804806386704254351e+02
2.470000000000267093e+00 1.773168106571330611e+02
2.490000000000266667e+00 1.749986725627281601e+02
2.510000000000266240e+00 1.723254314558473084e+02
2.530000000000265814e+00 1.703288417281442264e+02
2.550000000000265388e+00 1.682647935631985661e+02
2.570000000000264961e+00 1.657586472551353438e+02
2.590000000000264535e+00 1.630143836660212457e+02
2.610000000000264109e+00 1.609064112777367370e+02
2.630000000000263682e+00 1.590701877824707822e+02
2.650000000000263256e+00 1.566055779990435326e+02
2.670000000000262830e+00 1.538265047765037252e+02
2.690000000000262403e+00 1.522754291129194542e+02
2.710000000000261977e+00 1.492267872810170957e+02
2.730000000000261551e+00 1.474849853879473756e+02
2.750000000000261124e+00 1.454177694267359868e+02
2.770000000000260698e+00 1.429847026025543926e+02
2.790000000000260272e+00 1.407920566467863637e+02
2.810000000000259845e+00 1.381899045214997273e+02
2.830000000000259419e+00 1.364871709893275522e+02
2.850000000000258993e+00 1.336134035326926437e+02
2.870000000000258567e+00 1.319364185263908382e+02
2.890000000000258140e+00 1.307966683565363155e+02
2.910000000000257714e+00 1.269004218576367435e+02
2.930000000000257288e+00 1.253430134060486978e+02
2.950000000000256861e+00 1.232103988100948158e+02
2.970000000000256435e+00 1.214480015043656493e+02
2.990000000000256009e+00 1.192804014156845653e+02
3.010000000000255582e+00 1.172921475546712173e+02
3.030000000000255156e+00 1.151817520663649788e+02
3.050000000000254730e+00 1.139391735189415442e+02
3.070000000000254303e+00 1.116474424578514686e+02
3.090000000000253877e+00 1.101355436889205635e+02
3.110000000000253451e+00 1.083751350932923714e+02
3.130000000000253024e+00 1.062667864236922810e+02
3.150000000000252598e+00 1.039837409511227406e+02
3.170000000000252172e+00 1.026645489672646505e+02
3.190000000000251745e+00 1.012257770822498912e+02
3.210000000000251319e+00 9.912018784975319363e+01
3.230000000000250893e+00 9.757586648487973946e+01
3.250000000000250466e+00 9.595880428013150265e+01
3.270000000000250040e+00 9.409406306144261123e+01
3.290000000000249614e+00 9.236472447229967031e+01
3.310000000000249187e+00 9.120552757469864957e+01
3.330000000000248761e+00 8.942663747917546857e+01
3.350000000000248335e+00 8.768920896040997093e+01
3.370000000000247908e+00 8.662813212950108266e+01
3.390000000000247482e+00 8.503360723176290037e+01
3.410000000000247056e+00 8.354130206011808468e+01
3.430000000000246629e+00 8.235933603059631025e+01
3.450000000000246203e+00 8.055262975574031259e+01
3.470000000000245777e+00 7.946631088954607947e+01
3.490000000000245350e+00 7.810055560474083336e+01
3.510000000000244924e+00 7.677607229782836384e+01
3.530000000000244498e+00 7.545793170935203875e+01
3.550000000000244071e+00 7.444950464828363579e+01
3.570000000000243645e+00 7.340615194367809693e+01
3.590000000000243219e+00 7.183224789285385725e+01
3.610000000000242792e+00 7.154801306527301108e+01
3.630000000000242366e+00 6.988435992982248024e+01
3.650000000000241940e+00 6.891067804377321693e+01
3.670000000000241513e+00 6.825234795803758914e+01
3.690000000000241087e+00 6.691809942576257697e+01
3.710000000000240661e+00 6.652730906367330022e+01
3.730000000000240234e+00 6.509229918378697732e+01
3.750000000000239808e+00 6.371862502540840012e+01
3.770000000000239382e+00 6.245877282683007081e+01
3.790000000000238956e+00 6.096340411997594089e+01
3.810000000000238529e+00 6.054465696084179172e+01
3.830000000000238103e+00 5.976407790823245847e+01
3.850000000000237677e+00 5.823999718399613101e+01
3.870000000000237250e+00 5.762049305226162943e+01
3.890000000000236824e+00 5.669424039571462970e+01
3.910000000000236398e+00 5.647558808584347645e+01
3.930000000000235971e+00 5.510913346348293373e+01
3.950000000000235545e+00 5.428834863226938268e+01
3.970000000000235119e+00 5.287556258757412309e+01
3.990000000000234692e+00 5.266869982459363086e+01
4.010000000000234266e+00 5.157553855278411703e+01
4.030000000000233840e+00 5.086915315740630206e+01
4.050000000000233413e+00 5.033267657512447357e+01
4.070000000000232987e+00 4.899525126729611912e+01
4.090000000000232561e+00 4.830623287831772927e+01
4.110000000000232134e+00 4.732521750266025862e+01
4.130000000000231708e+00 4.690553315878678831e+01
4.150000000000231282e+00 4.645454034620368589e+01
4.170000000000230855e+00 4.544672312645501222e+01
4.190000000000230429e+00 4.467757549083854940e+01
4.210000000000230003e+00 4.493470305572727597e+01
4.230000000000229576e+00 4.359036892526202678e+01
4.250000000000229150e+00 4.314763470129130951e+01
4.270000000000228724e+00 4.247056717798282932e+01
4.290000000000228297e+00 4.164416662249083600e+01
4.310000000000227871e+00 4.135805958431299700e+01
4.330000000000227445e+00 4.066754667756575969e+01
4.350000000000227018e+00 4.036968714571965222e+01
4.370000000000226592e+00 3.937582602572877022e+01
4.390000000000226166e+00 3.968072587990701550e+01
4.410000000000225739e+00 3.847856422629526918e+01
4.430000000000225313e+00 3.840096641519668452e+01
4.450000000000224887e+00 3.755448852915365165e+01
4.470000000000224460e+00 3.699754591281023153e+01
4.490000000000224034e+00 3.669654438668896290e+01
4.510000000000223608e+00 3.604665705509454909e+01
4.530000000000223181e+00 3.577827938033556876e+01
4.550000000000222755e+00 3.533544491161693912e+01
4.570000000000222329e+00 3.482058055458164603e+01
4.590000000000221902e+00 3.429169829115195967e+01
4.610000000000221476e+00 3.425926244663583731e+01
4.630000000000221050e+00 3.360896558137381618e+01
4.650000000000220624e+00 3.357505716356111236e+01
4.670000000000220197e+00 3.319289877296305491e+01
4.690000000000219771e+00 3.269301643100636312e+01
4.710000000000219345e+00 3.202240351155569442e+01
4.730000000000218918e+00 3.251646364623093888e+01
4.750000000000218492e+00 3.141230202974769270e+01
4.770000000000218066e+00 3.119120251870449678e+01
4.790000000000217639e+00 3.050135208130259201e+01
4.810000000000217213e+00 3.021145343854192689e+01
4.830000000000216787e+00 2.968401601424050895e+01
4.850000000000216360e+00 2.898438515809935012e+01
4.870000000000215934e+00 2.895924819652342919e+01
4.890000000000215508e+00 2.861981184637276954e+01
4.910000000000215081e+00 2.786796203198514732e+01
4.930000000000214655e+00 2.770231692884625474e+01
4.950000000000214229e+00 2.760987185296376012e+01
4.970000000000213802e+00 2.708660567479995152e+01
4.990000000000213376e+00 2.677627719388587124e+01
5.010000000000212950e+00 2.661397904397445657e+01
5.030000000000212523e+00 2.623465498738733714e+01
5.050000000000212097e+00 2.588381984073581066e+01
5.070000000000211671e+00 2.555048217242981679e+01
5.090000000000211244e+00 2.536438459285285063e+01
5.110000000000210818e+00 2.458353404016338928e+01
5.130000000000210392e+00 2.478183584781960747e+01
5.150000000000209965e+00 2.406892995673056390e+01
5.170000000000209539e+00 2.443515442522773995e+01
5.190000000000209113e+00 2.363579586606550009e+01
5.210000000000208686e+00 2.364757882907121456e+01
5.230000000000208260e+00 2.288484395141738759e+01
5.250000000000207834e+00 2.310819599355145826e+01
5.270000000000207407e+00 2.238646685930931923e+01
5.290000000000206981e+00 2.227692928576851372e+01
5.310000000000206555e+00 2.221865325935063851e+01
5.330000000000206128e+00 2.190621111958384404e+01
5.350000000000205702e+00 2.155251676589463727e+01
5.370000000000205276e+00 2.122441289611525761e+01
5.390000000000204849e+00 2.123802263405075053e+01
5.410000000000204423e+00 2.087116053031647667e+01
5.430000000000203997e+00 2.067647748675480912e+01
5.450000000000203570e+00 2.059397307518608855e+01
5.470000000000203144e+00 2.026921353778450552e+01
5.490000000000202718e+00 2.014085533724286847e+01
5.510000000000202292e+00 1.967298220781321660e+01
5.530000000000201865e+00 1.954609014230281971e+01
5.550000000000201439e+00 1.944598520772719397e+01
5.570000000000201013e+00 1.901718804548423591e+01
5.590000000000200586e+00 1.875036164062762722e+01
5.610000000000200160e+00 1.867969157494771437e+01
5.630000000000199734e+00 1.825482815979117746e+01
5.650000000000199307e+00 1.803745145263011906e+01
5.670000000000198881e+00 1.775732573314014573e+01
5.690000000000198455e+00 1.760428650667321193e+01
5.710000000000198028e+00 1.753915706749912218e+01
5.730000000000197602e+00 1.717569181751852625e+01
5.750000000000197176e+00 1.708933832224626670e+01
5.770000000000196749e+00 1.673279024631569811e+01
5.790000000000196323e+00 1.664821967039130257e+01
5.810000000000195897e+00 1.654735234779764852e+01
5.830000000000195470e+00 1.623996583757402234e+01
5.850000000000195044e+00 1.594746909962910486e+01
5.870000000000194618e+00 1.584981271093016986e+01
5.890000000000194191e+00 1.553200013700524984e+01
5.910000000000193765e+00 1.551348624327693848e+01
5.930000000000193339e+00 1.514281492980781429e+01
5.950000000000192912e+00 1.501925063658402237e+01
5.970000000000192486e+00 1.495167153778777092e+01
5.990000000000192060e+00 1.468712246950721045e+01
6.010000000000191633e+00 1.463774640149672202e+01
6.030000000000191207e+00 1.444871154570331839e+01
6.050000000000190781e+00 1.427168934199570316e+01
6.070000000000190354e+00 1.416601625033454681e+01
6.090000000000189928e+00 1.376239722186743997e+01
6.110000000000189502e+00 1.394713890983284266e+01
6.130000000000189075e+00 1.365195140535988649e+01
6.150000000000188649e+00 1.360339623144076171e+01
6.170000000000188223e+00 1.341135169125134929e+01
6.190000000000187796e+00 1.292997002408320029e+01
6.210000000000187370e+00 1.279404969455009322e+01
6.230000000000186944e+00 1.282020010068948324e+01
6.250000000000186517e+00 1.249525531526771793e+01
6.270000000000186091e+00 1.238569786867961220e+01
6.290000000000185665e+00 1.225356647058934989e+01
6.310000000000185238e+00 1.203270851600990632e+01
6.330000000000184812e+00 1.172896078418283672e+01
6.350000000000184386e+00 1.184995127337650089e+01
6.370000000000183960e+00 1.167455855181071200e+01
6.390000000000183533e+00 1.142440363907999767e+01
6.410000000000183107e+00 1.130141157575834754e+01
6.430000000000182681e+00 1.115522924485406797e+01
6.450000000000182254e+00 1.092432643958458982e+01
6.470000000000181828e+00 1.085586518263391298e+01
6.490000000000181402e+00 1.048323510303669615e+01
6.510000000000180975e+00 1.059808161494901846e+01
6.530000000000180549e+00 1.028320864370550680e+01
6.550000000000180123e+00 1.029119459822412352e+01
6.570000000000179696e+00 1.001770053029891372e+01
6.590000000000179270e+00 9.990926864354921833e+00
6.610000000000178844e+00 9.842454887530520224e+00
6.630000000000178417e+00 9.683332239305840972e+00
6.650000000000177991e+00 9.761708202956434377e+00
6.670000000000177565e+00 9.431059023470627523e+00
6.690000000000177138e+00 9.495974398802918159e+00
6.710000000000176712e+00 9.363149327313349701e+00
6.730000000000176286e+00 9.168082352791746104e+00
6.750000000000175859e+00 9.165717973345952174e+00
6.770000000000175433e+00 8.963099591397298838e+00
6.790000000000175007e+00 8.788490270617650424e+00
6.810000000000174580e+00 8.767250967369291104e+00
6.830000000000174154e+00 8.386431513396534143e+00
6.850000000000173728e+00 8.293838500806062441e+00
6.870000000000173301e+00 8.340055608012596267e+00
6.890000000000172875e+00 8.213477448530220215e+00
6.910000000000172449e+00 8.001329437096446284e+00
6.930000000000172022e+00 7.879174216231938921e+00
6.950000000000171596e+00 7.770776603246877912e+00
6.970000000000171170e+00 7.761361994586202684e+00
6.990000000000170743e+00 7.745923841412616362e+00
7.010000000000170317e+00 7.569077203538377319e+00
7.030000000000169891e+00 7.527611558363910049e+00
7.050000000000169464e+00 7.352024773372973776e+00
7.070000000000169038e+00 7.225829761336306056e+00
7.090000000000168612e+00 7.102344526792807144e+00
7.110000000000168185e+00 7.120478031617774484e+00
7.130000000000167759e+00 6.889447812751090083e+00
7.150000000000167333e+00 6.830975247267674355e+00
7.170000000000166906e+00 6.829478834988087499e+00
7.190000000000166480e+00 6.693524354618093142e+00
7.210000000000166054e+00 6.592333182630290445e+00
7.230000000000165628e+00 6.620697915600638694e+00
7.250000000000165201e+00 6.624168250312592043e+00
7.270000000000164775e+00 6.550828964693731216e+00
7.290000000000164349e+00 6.270201276342510788e+00
7.310000000000163922e+00 6.262724401657678186e+00
7.330000000000163496e+00 6.154005329991577788e+00
7.350000000000163070e+00 6.275624012799037921e+00
7.370000000000162643e+00 6.057610803259900756e+00
7.390000000000162217e+00 5.945142517010685523e+00
7.410000000000161791e+00 5.932797501934827800e+00
7.430000000000161364e+00 5.896000480264126153e+00
7.450000000000160938e+00 5.756729609688310489e+00
7.470000000000160512e+00 5.703369948149945579e+00
7.490000000000160085e+00 5.579148876148983582e+00
7.510000000000159659e+00 5.551160143213285103e+00
7.530000000000159233e+00 5.563925458975383265e+00
7.550000000000158806e+00 5.411804017590025495e+00
7.570000000000158380e+00 5.395332205357931343e+00
7.590000000000157954e+00 5.338592465520463293e+00
7.610000000000157527e+00 5.148016638270956236e+00
7.630000000000157101e+00 5.175645235245324827e+00
7.650000000000156675e+00 5.150833478740112881e+00
7.670000000000156248e+00 5.132685949399698799e+00
7.690000000000155822e+00 5.120820671697321025e+00
7.710000000000155396e+00 4.877789909147151270e+00
7.730000000000154969e+00 4.935951752391971148e+00
7.750000000000154543e+00 4.884872977071637479e+00
7.770000000000154117e+00 4.874058580385653094e+00
7.790000000000153690e+00 4.808276852543810875e+00
7.810000000000153264e+00 4.670871942896367202e+00
7.830000000000152838e+00 4.577543166285720666e+00
7.850000000000152411e+00 4.524359313222899637e+00
7.870000000000151985e+00 4.503589413309684097e+00
7.890000000000151559e+00 4.524900016637149136e+00
7.910000000000151132e+00 4.368013989745813674e+00
7.930000000000150706e+00 4.361644822799501497e+00
7.950000000000150280e+00 4.313496612591993795e+00
7.970000000000149853e+00 4.220404944515045109e+00
