# Redshift		Merger Rate Density [Gpc^-3yr^-1]
1.000000000031931770e-02 1.081681859718520400e+02
3.000000000031888964e-02 1.115072792218255557e+02
5.000000000031846331e-02 1.154545494950017854e+02
7.000000000031804392e-02 1.202755219021861421e+02
9.000000000031761760e-02 1.239578992801268527e+02
1.100000000003171913e-01 1.291220350187300312e+02
1.300000000003167511e-01 1.334696215698376136e+02
1.500000000003163247e-01 1.386291474285527556e+02
1.700000000003158984e-01 1.438401237034277926e+02
1.900000000003154721e-01 1.474156947011679222e+02
2.100000000003150458e-01 1.533373131515181171e+02
2.300000000003146194e-01 1.580332788324822388e+02
2.500000000003141931e-01 1.636059521727480330e+02
2.700000000003137668e-01 1.687184506135874926e+02
2.900000000003133405e-01 1.739475533531503686e+02
3.100000000003129141e-01 1.799597226578585776e+02
3.300000000003124878e-01 1.851646902155644057e+02
3.500000000003120615e-01 1.904101449584385364e+02
3.700000000003116352e-01 1.964866032779447380e+02
3.900000000003112088e-01 2.044083285950786149e+02
4.100000000003107825e-01 2.083224833119452342e+02
4.300000000003103562e-01 2.153538203503093200e+02
4.500000000003099299e-01 2.188139332106451036e+02
4.700000000003095035e-01 2.264582901903231402e+02
4.900000000003090772e-01 2.333610704092682226e+02
5.100000000003086509e-01 2.383841727281466945e+02
5.300000000003082246e-01 2.445154154571835079e+02
5.500000000003077982e-01 2.510172114211779046e+02
5.700000000003073719e-01 2.569141838062532770e+02
5.900000000003069456e-01 2.622109267049552273e+02
6.100000000003065193e-01 2.688201724752411224e+02
6.300000000003060929e-01 2.765174024569614630e+02
6.500000000003056666e-01 2.820612936276402252e+02
6.700000000003052403e-01 2.897153351346659065e+02
6.900000000003048140e-01 2.925022064974778573e+02
7.100000000003043876e-01 3.010172001120267851e+02
7.300000000003039613e-01 3.089450079209094042e+02
7.500000000003035350e-01 3.137766695477574217e+02
7.700000000003031086e-01 3.216236706997925694e+02
7.900000000003026823e-01 3.269728704283956517e+02
8.100000000003022560e-01 3.329615804434518509e+02
8.300000000003018297e-01 3.362466131874076609e+02
8.500000000003014033e-01 3.472355188418911780e+02
8.700000000003009770e-01 3.506467424550443184e+02
8.900000000003005507e-01 3.549277049129079842e+02
9.100000000003001244e-01 3.631630568583669856e+02
9.300000000002996980e-01 3.670995648461658334e+02
9.500000000002992717e-01 3.717322357384979910e+02
9.700000000002988454e-01 3.795147084888391191e+02
9.900000000002984191e-01 3.850379118075802580e+02
1.010000000000297993e+00 3.894438671871630504e+02
1.030000000000297566e+00 3.937760947969831591e+02
1.050000000000297140e+00 3.991644034229319686e+02
1.070000000000296714e+00 4.046139951402412862e+02
1.090000000000296287e+00 4.104890682052719058e+02
1.110000000000295861e+00 4.109882316436576843e+02
1.130000000000295435e+00 4.191666613492866986e+02
1.150000000000295008e+00 4.238499846951435757e+02
1.170000000000294582e+00 4.264844448255754514e+02
1.190000000000294156e+00 4.279338745097927017e+02
1.210000000000293729e+00 4.362424076128597790e+02
1.230000000000293303e+00 4.369958089049083014e+02
1.250000000000292877e+00 4.388784174481817786e+02
1.270000000000292451e+00 4.469964032616618965e+02
1.290000000000292024e+00 4.442574024702284987e+02
1.310000000000291598e+00 4.494302124938789120e+02
1.330000000000291172e+00 4.535047417949268151e+02
1.350000000000290745e+00 4.525367383976037559e+02
1.370000000000290319e+00 4.567458697627097308e+02
1.390000000000289893e+00 4.588592053190699289e+02
1.410000000000289466e+00 4.605046766240337774e+02
1.430000000000289040e+00 4.597387533018092540e+02
1.450000000000288614e+00 4.615533309421233525e+02
1.470000000000288187e+00 4.620925656659982792e+02
1.490000000000287761e+00 4.623105785752619568e+02
1.510000000000287335e+00 4.635851119426272930e+02
1.530000000000286908e+00 4.627683329533837195e+02
1.550000000000286482e+00 4.669448936934907692e+02
1.570000000000286056e+00 4.610819740981096402e+02
1.590000000000285629e+00 4.618258829789988340e+02
1.610000000000285203e+00 4.603689815635246418e+02
1.630000000000284777e+00 4.598169435159845762e+02
1.650000000000284350e+00 4.604466771098845470e+02
1.670000000000283924e+00 4.576531862684735756e+02
1.690000000000283498e+00 4.541156141343236072e+02
1.710000000000283071e+00 4.537597646769445987e+02
1.730000000000282645e+00 4.550742799700590808e+02
1.750000000000282219e+00 4.466085737473222252e+02
1.770000000000281792e+00 4.460013266922772459e+02
1.790000000000281366e+00 4.457062910910445908e+02
1.810000000000280940e+00 4.430183252131703284e+02
1.830000000000280513e+00 4.372797507823291312e+02
1.850000000000280087e+00 4.349350990740205702e+02
1.870000000000279661e+00 4.309298175067681314e+02
1.890000000000279234e+00 4.287279745530738637e+02
1.910000000000278808e+00 4.240676152238211785e+02
1.930000000000278382e+00 4.219861967602261075e+02
1.950000000000277955e+00 4.187750185810205039e+02
1.970000000000277529e+00 4.121422212774057812e+02
1.990000000000277103e+00 4.098740641903504525e+02
2.010000000000276899e+00 4.041529109408788258e+02
2.030000000000276472e+00 4.018628557513387705e+02
2.050000000000276046e+00 3.967965181617981330e+02
2.070000000000275620e+00 3.906243728722878927e+02
2.090000000000275193e+00 3.901954793811991635e+02
2.110000000000274767e+00 3.836468164035344444e+02
2.130000000000274341e+00 3.805707024347739207e+02
2.150000000000273914e+00 3.722271687917226473e+02
2.170000000000273488e+00 3.688139632971177093e+02
2.190000000000273062e+00 3.653539980272604453e+02
2.210000000000272635e+00 3.592886981028585183e+02
2.230000000000272209e+00 3.542958356479406916e+02
2.250000000000271783e+00 3.510394172612621446e+02
2.270000000000271356e+00 3.464489103668352641e+02
2.290000000000270930e+00 3.405242339817592665e+02
2.310000000000270504e+00 3.371379029602852029e+02
2.330000000000270077e+00 3.313939174245729191e+02
2.350000000000269651e+00 3.255575759433415897e+02
2.370000000000269225e+00 3.209177692899360181e+02
2.390000000000268798e+00 3.151872409780963835e+02
2.410000000000268372e+00 3.104681191782241285e+02
2.430000000000267946e+00 3.064238522827177462e+02
2.450000000000267519e+00 2.992713182871231652e+02
2.470000000000267093e+00 2.966383043954150480e+02
2.490000000000266667e+00 2.904173482791748029e+02
2.510000000000266240e+00 2.861004142987849264e+02
2.530000000000265814e+00 2.828961307547812680e+02
2.550000000000265388e+00 2.775689230166720449e+02
2.570000000000264961e+00 2.709209553487453945e+02
2.590000000000264535e+00 2.680415875713086393e+02
2.610000000000264109e+00 2.632259906433457104e+02
2.630000000000263682e+00 2.587422550641665566e+02
2.650000000000263256e+00 2.534733325510588600e+02
2.670000000000262830e+00 2.486395643865613749e+02
2.690000000000262403e+00 2.436176652826058273e+02
2.710000000000261977e+00 2.412631222918851961e+02
2.730000000000261551e+00 2.353968606245244928e+02
2.750000000000261124e+00 2.331842071846828048e+02
2.770000000000260698e+00 2.282435925423896776e+02
2.790000000000260272e+00 2.232797565100756856e+02
2.810000000000259845e+00 2.192741262317243525e+02
2.830000000000259419e+00 2.146416008493518461e+02
2.850000000000258993e+00 2.114706594293110982e+02
2.870000000000258567e+00 2.066245708820345044e+02
2.890000000000258140e+00 2.038673795321213618e+02
2.910000000000257714e+00 1.989230048339692019e+02
2.930000000000257288e+00 1.969533728236547176e+02
2.950000000000256861e+00 1.911460173844926942e+02
2.970000000000256435e+00 1.891010181020908192e+02
2.990000000000256009e+00 1.845396200104474644e+02
3.010000000000255582e+00 1.817027695103347753e+02
3.030000000000255156e+00 1.786111499503897164e+02
3.050000000000254730e+00 1.746995654887173828e+02
3.070000000000254303e+00 1.704282444486174768e+02
3.090000000000253877e+00 1.684483270514287483e+02
3.110000000000253451e+00 1.650135114674027648e+02
3.130000000000253024e+00 1.608702761421348839e+02
3.150000000000252598e+00 1.587113814276372068e+02
3.170000000000252172e+00 1.551220730079592158e+02
3.190000000000251745e+00 1.531733861742382032e+02
3.210000000000251319e+00 1.495903052482750013e+02
3.230000000000250893e+00 1.465885338538579106e+02
3.250000000000250466e+00 1.438891434643672937e+02
3.270000000000250040e+00 1.402128537477036616e+02
3.290000000000249614e+00 1.400803900665826802e+02
3.310000000000249187e+00 1.350271630063259636e+02
3.330000000000248761e+00 1.329918016642859016e+02
3.350000000000248335e+00 1.308726949764896972e+02
3.370000000000247908e+00 1.287438971662034533e+02
3.390000000000247482e+00 1.262553063733323313e+02
3.410000000000247056e+00 1.234144125752806787e+02
3.430000000000246629e+00 1.204163654514639461e+02
3.450000000000246203e+00 1.184988421756254979e+02
3.470000000000245777e+00 1.162346173544608376e+02
3.490000000000245350e+00 1.145820212214009217e+02
3.510000000000244924e+00 1.127526807332085212e+02
3.530000000000244498e+00 1.093779094562635521e+02
3.550000000000244071e+00 1.081433104661270193e+02
3.570000000000243645e+00 1.062852376518166011e+02
3.590000000000243219e+00 1.048303280280449172e+02
3.610000000000242792e+00 1.018845699884089555e+02
3.630000000000242366e+00 1.006573412024351200e+02
3.650000000000241940e+00 9.834404991809094554e+01
3.670000000000241513e+00 9.639231138943344490e+01
3.690000000000241087e+00 9.457114286693861516e+01
3.710000000000240661e+00 9.296857972670834158e+01
3.730000000000240234e+00 9.249624018175420304e+01
3.750000000000239808e+00 8.914356367130926628e+01
3.770000000000239382e+00 8.877228131903095232e+01
3.790000000000238956e+00 8.699551850166362499e+01
3.810000000000238529e+00 8.485782391530713653e+01
3.830000000000238103e+00 8.337767025059277159e+01
3.850000000000237677e+00 8.199450422189468668e+01
3.870000000000237250e+00 8.054194655428379690e+01
3.890000000000236824e+00 7.928853221451666400e+01
3.910000000000236398e+00 7.778674124980352644e+01
3.930000000000235971e+00 7.569244442427606145e+01
3.950000000000235545e+00 7.527044819708777368e+01
3.970000000000235119e+00 7.332235022592061569e+01
3.990000000000234692e+00 7.253773382312765250e+01
4.010000000000234266e+00 7.108346569611639154e+01
4.030000000000233840e+00 6.963835229242901903e+01
4.050000000000233413e+00 6.867776286874473612e+01
4.070000000000232987e+00 6.717697078361013041e+01
4.090000000000232561e+00 6.621473407284869950e+01
4.110000000000232134e+00 6.536096683855521405e+01
4.130000000000231708e+00 6.456308881452225990e+01
4.150000000000231282e+00 6.336720874768989376e+01
4.170000000000230855e+00 6.195535235621844095e+01
4.190000000000230429e+00 6.029811574741042079e+01
4.210000000000230003e+00 6.032703986473972435e+01
4.230000000000229576e+00 5.862893347807802513e+01
4.250000000000229150e+00 5.794818033744471109e+01
4.270000000000228724e+00 5.664098012926914549e+01
4.290000000000228297e+00 5.585590771500228158e+01
4.310000000000227871e+00 5.512787190892406386e+01
4.330000000000227445e+00 5.443628599915538757e+01
4.350000000000227018e+00 5.322429470104196980e+01
4.370000000000226592e+00 5.240919773622735534e+01
4.390000000000226166e+00 5.183432359699612846e+01
4.410000000000225739e+00 5.100996049442208857e+01
4.430000000000225313e+00 4.982550126166272264e+01
4.450000000000224887e+00 4.913161322537153808e+01
4.470000000000224460e+00 4.853663519233119672e+01
4.490000000000224034e+00 4.763468812542591024e+01
4.510000000000223608e+00 4.683020549975861968e+01
4.530000000000223181e+00 4.679071883508877505e+01
4.550000000000222755e+00 4.565481090831384137e+01
4.570000000000222329e+00 4.515368857043352335e+01
4.590000000000221902e+00 4.429663650583567858e+01
4.610000000000221476e+00 4.352266811704788552e+01
4.630000000000221050e+00 4.297324943602639991e+01
4.650000000000220624e+00 4.255373374214156001e+01
4.670000000000220197e+00 4.179768220097399478e+01
4.690000000000219771e+00 4.116372598380433345e+01
4.710000000000219345e+00 4.035066151667463430e+01
4.730000000000218918e+00 3.991759813399393408e+01
4.750000000000218492e+00 3.948198654101224747e+01
4.770000000000218066e+00 3.888071684563287533e+01
4.790000000000217639e+00 3.839394216169915808e+01
4.810000000000217213e+00 3.796281094034392112e+01
4.830000000000216787e+00 3.715396801139799265e+01
4.850000000000216360e+00 3.701253728654074138e+01
4.870000000000215934e+00 3.617266833344356058e+01
4.890000000000215508e+00 3.575465657707449907e+01
4.910000000000215081e+00 3.528514700196179632e+01
4.930000000000214655e+00 3.471329525438484609e+01
4.950000000000214229e+00 3.420697982315996200e+01
4.970000000000213802e+00 3.398425761309336934e+01
4.990000000000213376e+00 3.342478383204835524e+01
5.010000000000212950e+00 3.304684790219009471e+01
5.030000000000212523e+00 3.269985812269448644e+01
5.050000000000212097e+00 3.194306687928311561e+01
5.070000000000211671e+00 3.177223827586550087e+01
5.090000000000211244e+00 3.105706902166269145e+01
5.110000000000210818e+00 3.087177048361563791e+01
5.130000000000210392e+00 3.032585010095909084e+01
5.150000000000209965e+00 2.990825890502592088e+01
5.170000000000209539e+00 2.960419896200076195e+01
5.190000000000209113e+00 2.945305493983238421e+01
5.210000000000208686e+00 2.887511622463496153e+01
5.230000000000208260e+00 2.875057724059550424e+01
5.250000000000207834e+00 2.767324770960149749e+01
5.270000000000207407e+00 2.771267239767380275e+01
5.290000000000206981e+00 2.734280618572797295e+01
5.310000000000206555e+00 2.707470393598474345e+01
5.330000000000206128e+00 2.667014973406032396e+01
5.350000000000205702e+00 2.633865293392647544e+01
5.370000000000205276e+00 2.604386447595887333e+01
5.390000000000204849e+00 2.582386009255477077e+01
5.410000000000204423e+00 2.543114465477857067e+01
5.430000000000203997e+00 2.499286982803856105e+01
5.450000000000203570e+00 2.467124038177870915e+01
5.470000000000203144e+00 2.471079762093942733e+01
5.490000000000202718e+00 2.457454729306982699e+01
5.510000000000202292e+00 2.379419582479523854e+01
5.530000000000201865e+00 2.351872764499057311e+01
5.550000000000201439e+00 2.346253672964949644e+01
5.570000000000201013e+00 2.325389856620233786e+01
5.590000000000200586e+00 2.251016674649766003e+01
5.610000000000200160e+00 2.270520700621057841e+01
5.630000000000199734e+00 2.217411762277120246e+01
5.650000000000199307e+00 2.201963287526016089e+01
5.670000000000198881e+00 2.174767770943277867e+01
5.690000000000198455e+00 2.137702307468918406e+01
5.710000000000198028e+00 2.111518405692914868e+01
5.730000000000197602e+00 2.100489217258071761e+01
5.750000000000197176e+00 2.075055295064417038e+01
5.770000000000196749e+00 2.026913057597513657e+01
5.790000000000196323e+00 2.015082866515033544e+01
5.810000000000195897e+00 1.980118634682544609e+01
5.830000000000195470e+00 1.991676384054709459e+01
5.850000000000195044e+00 1.965044606010943795e+01
5.870000000000194618e+00 1.918098574775622822e+01
5.890000000000194191e+00 1.899591582775292409e+01
5.910000000000193765e+00 1.863596519983166289e+01
5.930000000000193339e+00 1.865286206516877954e+01
5.950000000000192912e+00 1.820355549515713633e+01
5.970000000000192486e+00 1.804384562631503641e+01
5.990000000000192060e+00 1.779107424960376349e+01
6.010000000000191633e+00 1.778059882422709848e+01
6.030000000000191207e+00 1.749593908895951699e+01
6.050000000000190781e+00 1.742772305226665353e+01
6.070000000000190354e+00 1.725925959649355335e+01
6.090000000000189928e+00 1.682691698843768435e+01
6.110000000000189502e+00 1.680298831451481689e+01
6.130000000000189075e+00 1.655447378852795737e+01
6.150000000000188649e+00 1.635781162917711740e+01
6.170000000000188223e+00 1.626267620324107810e+01
6.190000000000187796e+00 1.602584301705842407e+01
6.210000000000187370e+00 1.604622110573791360e+01
6.230000000000186944e+00 1.565060709556584584e+01
6.250000000000186517e+00 1.557765251797513351e+01
6.270000000000186091e+00 1.522552480948264986e+01
6.290000000000185665e+00 1.519058756316081826e+01
6.310000000000185238e+00 1.503091537026289615e+01
6.330000000000184812e+00 1.520646362930492046e+01
6.350000000000184386e+00 1.475045594752824130e+01
6.370000000000183960e+00 1.484191393508173284e+01
6.390000000000183533e+00 1.446239009847774248e+01
6.410000000000183107e+00 1.452887607796836988e+01
6.430000000000182681e+00 1.419552569510430295e+01
6.450000000000182254e+00 1.395632805047753600e+01
6.470000000000181828e+00 1.398146486263746091e+01
6.490000000000181402e+00 1.371094984196253286e+01
6.510000000000180975e+00 1.357900744647093738e+01
6.530000000000180549e+00 1.351424632579443674e+01
6.550000000000180123e+00 1.346816914139145460e+01
6.570000000000179696e+00 1.329446984836542889e+01
6.590000000000179270e+00 1.327490803957438814e+01
6.610000000000178844e+00 1.310254563849616716e+01
6.630000000000178417e+00 1.276431770367021734e+01
6.650000000000177991e+00 1.283195547219770916e+01
6.670000000000177565e+00 1.271289732742488177e+01
6.690000000000177138e+00 1.259690557720564108e+01
6.710000000000176712e+00 1.239459839991468115e+01
6.730000000000176286e+00 1.243066641557011920e+01
6.750000000000175859e+00 1.244636597116928201e+01
6.770000000000175433e+00 1.205746789806753938e+01
6.790000000000175007e+00 1.214462368429271777e+01
6.810000000000174580e+00 1.195460835288321633e+01
6.830000000000174154e+00 1.179937817415217438e+01
6.850000000000173728e+00 1.183210525893586684e+01
6.870000000000173301e+00 1.168169793600156048e+01
6.890000000000172875e+00 1.164083463178653055e+01
6.910000000000172449e+00 1.143366049938211937e+01
6.930000000000172022e+00 1.160001995711343881e+01
6.950000000000171596e+00 1.137690643713141014e+01
6.970000000000171170e+00 1.128512056285115683e+01
6.990000000000170743e+00 1.124088732002455160e+01
7.010000000000170317e+00 1.121427211147691594e+01
7.030000000000169891e+00 1.111826448586176141e+01
7.050000000000169464e+00 1.104303866855254768e+01
7.070000000000169038e+00 1.096703896324822658e+01
7.090000000000168612e+00 1.092262780558994351e+01
7.110000000000168185e+00 1.085941319406095218e+01
7.130000000000167759e+00 1.077493509772109981e+01
7.150000000000167333e+00 1.069086978216494721e+01
7.170000000000166906e+00 1.091900007711181075e+01
7.190000000000166480e+00 1.061064612016959430e+01
7.210000000000166054e+00 1.062530266749862662e+01
7.230000000000165628e+00 1.039313261673864375e+01
7.250000000000165201e+00 1.061510683337583139e+01
7.270000000000164775e+00 1.045132652158312325e+01
7.290000000000164349e+00 1.044598138075072491e+01
7.310000000000163922e+00 1.027034172186203342e+01
7.330000000000163496e+00 1.037932263644538011e+01
7.350000000000163070e+00 1.050467157218153957e+01
7.370000000000162643e+00 1.021325625512890767e+01
7.390000000000162217e+00 1.026003660483528357e+01
7.410000000000161791e+00 1.020873868408362561e+01
7.430000000000161364e+00 1.021759292273306485e+01
7.450000000000160938e+00 1.014521881412069781e+01
7.470000000000160512e+00 1.004149531365544767e+01
7.490000000000160085e+00 1.014111356013109244e+01
7.510000000000159659e+00 1.006600940474060479e+01
7.530000000000159233e+00 1.008191909137508979e+01
7.550000000000158806e+00 9.988910336165810477e+00
7.570000000000158380e+00 1.006751563530704452e+01
7.590000000000157954e+00 1.004197311540918314e+01
7.610000000000157527e+00 1.008902004322146873e+01
7.630000000000157101e+00 1.017015684632871064e+01
7.650000000000156675e+00 1.005827183626300680e+01
7.670000000000156248e+00 1.011146045230921864e+01
7.690000000000155822e+00 1.001928572861512379e+01
7.710000000000155396e+00 9.991208139696563961e+00
7.730000000000154969e+00 1.013411139662115978e+01
7.750000000000154543e+00 1.009420250901451688e+01
7.770000000000154117e+00 1.014833317999124951e+01
7.790000000000153690e+00 1.020252903149354040e+01
7.810000000000153264e+00 1.001836148792901504e+01
7.830000000000152838e+00 1.009471427562601242e+01
7.850000000000152411e+00 1.002837325990545736e+01
7.870000000000151985e+00 1.016817786729127526e+01
7.890000000000151559e+00 1.013639112916302309e+01
7.910000000000151132e+00 1.008281059927178092e+01
7.930000000000150706e+00 1.008657420389875448e+01
7.950000000000150280e+00 1.025397187432887591e+01
7.970000000000149853e+00 1.025808148426191124e+01
