# Redshift		Merger Rate Density [Gpc^-3yr^-1]
1.000000000031931770e-02 2.412867210169328658e+01
3.000000000031888964e-02 2.558890226748246732e+01
5.000000000031846331e-02 2.658350425052984889e+01
7.000000000031804392e-02 2.778511177067765203e+01
9.000000000031761760e-02 2.852956265437406103e+01
1.100000000003171913e-01 2.977324165966687630e+01
1.300000000003167511e-01 3.073432036024111369e+01
1.500000000003163247e-01 3.202111496773682831e+01
1.700000000003158984e-01 3.295740698842912053e+01
1.900000000003154721e-01 3.584029286304644302e+01
2.100000000003150458e-01 3.612199096683192323e+01
2.300000000003146194e-01 3.774364110056841071e+01
2.500000000003141931e-01 3.909075620463889322e+01
2.700000000003137668e-01 4.019592660686335250e+01
2.900000000003133405e-01 4.208176989810205271e+01
3.100000000003129141e-01 4.297776934106548197e+01
3.300000000003124878e-01 4.490533774576994830e+01
3.500000000003120615e-01 4.588467597257915997e+01
3.700000000003116352e-01 4.777911777170672281e+01
3.900000000003112088e-01 4.940242089621884958e+01
4.100000000003107825e-01 5.075155619759038217e+01
4.300000000003103562e-01 5.250780742315762950e+01
4.500000000003099299e-01 5.386112783729038256e+01
4.700000000003095035e-01 5.557070190368658302e+01
4.900000000003090772e-01 5.741958148122318306e+01
5.100000000003086509e-01 5.879193341612891999e+01
5.300000000003082246e-01 5.972852148650605386e+01
5.500000000003077982e-01 6.233787280287530308e+01
5.700000000003073719e-01 6.368636214325499623e+01
5.900000000003069456e-01 6.520562995220095104e+01
6.100000000003065193e-01 6.689488537817967995e+01
6.300000000003060929e-01 6.840666752065060052e+01
6.500000000003056666e-01 7.055946385469287918e+01
6.700000000003052403e-01 7.254593010607644032e+01
6.900000000003048140e-01 7.442629276141428818e+01
7.100000000003043876e-01 7.586705841466648792e+01
7.300000000003039613e-01 7.868045653079875024e+01
7.500000000003035350e-01 8.107332734855900469e+01
7.700000000003031086e-01 8.263250648234060236e+01
7.900000000003026823e-01 8.302922140808077245e+01
8.100000000003022560e-01 8.664018576361605994e+01
8.300000000003018297e-01 8.764845769294184663e+01
8.500000000003014033e-01 9.087001544069389070e+01
8.700000000003009770e-01 9.247944873014819223e+01
8.900000000003005507e-01 9.334724730855565156e+01
9.100000000003001244e-01 9.497716744101789743e+01
9.300000000002996980e-01 9.773360072773604657e+01
9.500000000002992717e-01 9.941142955977348095e+01
9.700000000002988454e-01 1.022554416087963745e+02
9.900000000002984191e-01 1.027018246505108721e+02
1.010000000000297993e+00 1.046753842659255298e+02
1.030000000000297566e+00 1.076740641610167160e+02
1.050000000000297140e+00 1.091449663694792633e+02
1.070000000000296714e+00 1.103840415268433475e+02
1.090000000000296287e+00 1.127232296457616485e+02
1.110000000000295861e+00 1.144072649064086420e+02
1.130000000000295435e+00 1.150912576379655405e+02
1.150000000000295008e+00 1.175886370380542161e+02
1.170000000000294582e+00 1.199689289210519405e+02
1.190000000000294156e+00 1.193074258975332924e+02
1.210000000000293729e+00 1.236783128479150520e+02
1.230000000000293303e+00 1.236916160353159313e+02
1.250000000000292877e+00 1.244721380091203002e+02
1.270000000000292451e+00 1.272454755417599159e+02
1.290000000000292024e+00 1.277066920699075183e+02
1.310000000000291598e+00 1.290055056377474330e+02
1.330000000000291172e+00 1.318148158879882317e+02
1.350000000000290745e+00 1.320254479843341358e+02
1.370000000000290319e+00 1.341894872607007017e+02
1.390000000000289893e+00 1.346886334081261509e+02
1.410000000000289466e+00 1.352532730903221818e+02
1.430000000000289040e+00 1.364207208145885772e+02
1.450000000000288614e+00 1.381174301299957676e+02
1.470000000000288187e+00 1.395389121767844642e+02
1.490000000000287761e+00 1.395327004080774032e+02
1.510000000000287335e+00 1.412758013211577577e+02
1.530000000000286908e+00 1.428094113990365486e+02
1.550000000000286482e+00 1.430969744750562427e+02
1.570000000000286056e+00 1.434769557061471517e+02
1.590000000000285629e+00 1.444715301954639131e+02
1.610000000000285203e+00 1.438847847561318076e+02
1.630000000000284777e+00 1.445186352023292784e+02
1.650000000000284350e+00 1.458733784981041595e+02
1.670000000000283924e+00 1.456278180524926995e+02
1.690000000000283498e+00 1.471719222898496469e+02
1.710000000000283071e+00 1.464524765907979145e+02
1.730000000000282645e+00 1.480827427448389244e+02
1.750000000000282219e+00 1.455695782827591245e+02
1.770000000000281792e+00 1.467596416543193243e+02
1.790000000000281366e+00 1.484732308815375177e+02
1.810000000000280940e+00 1.467568477133320073e+02
1.830000000000280513e+00 1.488159517294486420e+02
1.850000000000280087e+00 1.466720607951219506e+02
1.870000000000279661e+00 1.471661751557008984e+02
1.890000000000279234e+00 1.470995126689927588e+02
1.910000000000278808e+00 1.492093946105835300e+02
1.930000000000278382e+00 1.465691875844110541e+02
1.950000000000277955e+00 1.465862976774607489e+02
1.970000000000277529e+00 1.439403416651784937e+02
1.990000000000277103e+00 1.449751054400650503e+02
2.010000000000276899e+00 1.440215728505164066e+02
2.030000000000276472e+00 1.439936328693711687e+02
2.050000000000276046e+00 1.431493729359135330e+02
2.070000000000275620e+00 1.423800014024955374e+02
2.090000000000275193e+00 1.413998303308946163e+02
2.110000000000274767e+00 1.392148813573257087e+02
2.130000000000274341e+00 1.383583569669497422e+02
2.150000000000273914e+00 1.375002043773192213e+02
2.170000000000273488e+00 1.355751417966448003e+02
2.190000000000273062e+00 1.348725531620490017e+02
2.210000000000272635e+00 1.340907321580053519e+02
2.230000000000272209e+00 1.341625146986607717e+02
2.250000000000271783e+00 1.314946432821572273e+02
2.270000000000271356e+00 1.294979840948284391e+02
2.290000000000270930e+00 1.289421146497639654e+02
2.310000000000270504e+00 1.258850122580447248e+02
2.330000000000270077e+00 1.260328871820577064e+02
2.350000000000269651e+00 1.259658019556423625e+02
2.370000000000269225e+00 1.235513440274487351e+02
2.390000000000268798e+00 1.219443130178176489e+02
2.410000000000268372e+00 1.204953117874669744e+02
2.430000000000267946e+00 1.204554808015781902e+02
2.450000000000267519e+00 1.190952083290903545e+02
2.470000000000267093e+00 1.164113320942168315e+02
2.490000000000266667e+00 1.154637883131511842e+02
2.510000000000266240e+00 1.141515210180484132e+02
2.530000000000265814e+00 1.120340221209598042e+02
2.550000000000265388e+00 1.120645206355693944e+02
2.570000000000264961e+00 1.095708374169671657e+02
2.590000000000264535e+00 1.090284178247166551e+02
2.610000000000264109e+00 1.080720095151546616e+02
2.630000000000263682e+00 1.056922938753621253e+02
2.650000000000263256e+00 1.045209736346690192e+02
2.670000000000262830e+00 1.033744241252194058e+02
2.690000000000262403e+00 1.017836208008622663e+02
2.710000000000261977e+00 1.004494278290749918e+02
2.730000000000261551e+00 9.893068583129392835e+01
2.750000000000261124e+00 9.844316827846382978e+01
2.770000000000260698e+00 9.711059532603862010e+01
2.790000000000260272e+00 9.468155434244441437e+01
2.810000000000259845e+00 9.360073905097267755e+01
2.830000000000259419e+00 9.170636618584886435e+01
2.850000000000258993e+00 9.130896591311019961e+01
2.870000000000258567e+00 9.044712910673698048e+01
2.890000000000258140e+00 8.864884495281098964e+01
2.910000000000257714e+00 8.709817599009896583e+01
2.930000000000257288e+00 8.483348987139623887e+01
2.950000000000256861e+00 8.540276977459336649e+01
2.970000000000256435e+00 8.327368900437024024e+01
2.990000000000256009e+00 8.245064809178032306e+01
3.010000000000255582e+00 8.055208330070745149e+01
3.030000000000255156e+00 7.960209213311588883e+01
3.050000000000254730e+00 7.794417647554679718e+01
3.070000000000254303e+00 7.706369290817889350e+01
3.090000000000253877e+00 7.648319891746899657e+01
3.110000000000253451e+00 7.487087935490960433e+01
3.130000000000253024e+00 7.362405771973973856e+01
3.150000000000252598e+00 7.283994232374669764e+01
3.170000000000252172e+00 7.066890718106911606e+01
3.190000000000251745e+00 6.978900856710407652e+01
3.210000000000251319e+00 6.928512453510114710e+01
3.230000000000250893e+00 6.801410358596636740e+01
3.250000000000250466e+00 6.725441865699369259e+01
3.270000000000250040e+00 6.593959213671510611e+01
3.290000000000249614e+00 6.500100831997411888e+01
3.310000000000249187e+00 6.427445486320345935e+01
3.330000000000248761e+00 6.335673504350064178e+01
3.350000000000248335e+00 6.166184123570656084e+01
3.370000000000247908e+00 6.055201975218118093e+01
3.390000000000247482e+00 6.011746939482864605e+01
3.410000000000247056e+00 5.892236275938650891e+01
3.430000000000246629e+00 5.895209334073487639e+01
3.450000000000246203e+00 5.772577855381730672e+01
3.470000000000245777e+00 5.589509821788027466e+01
3.490000000000245350e+00 5.594905962385767140e+01
3.510000000000244924e+00 5.441861244759955696e+01
3.530000000000244498e+00 5.430559270699082930e+01
3.550000000000244071e+00 5.336659966329621341e+01
3.570000000000243645e+00 5.296998095737830425e+01
3.590000000000243219e+00 5.194818112474330007e+01
3.610000000000242792e+00 5.064757639408281165e+01
3.630000000000242366e+00 4.936120984271040157e+01
3.650000000000241940e+00 4.902828336996557113e+01
3.670000000000241513e+00 4.782081559557821748e+01
3.690000000000241087e+00 4.683300714701909584e+01
3.710000000000240661e+00 4.668307838323971026e+01
3.730000000000240234e+00 4.575251672940428449e+01
3.750000000000239808e+00 4.572723315831972002e+01
3.770000000000239382e+00 4.489891006047370325e+01
3.790000000000238956e+00 4.354356994612919607e+01
3.810000000000238529e+00 4.302350269583341458e+01
3.830000000000238103e+00 4.242307605757322619e+01
3.850000000000237677e+00 4.170023114944071807e+01
3.870000000000237250e+00 4.141977263507217799e+01
3.890000000000236824e+00 4.054866033740600528e+01
3.910000000000236398e+00 3.988989989431738792e+01
3.930000000000235971e+00 3.982562877308597393e+01
3.950000000000235545e+00 3.904008474742742862e+01
3.970000000000235119e+00 3.834800911073295282e+01
3.990000000000234692e+00 3.753588162887981383e+01
4.010000000000234266e+00 3.747087121694242029e+01
4.030000000000233840e+00 3.773857063527508160e+01
4.050000000000233413e+00 3.620121594230641904e+01
4.070000000000232987e+00 3.581285212398969264e+01
4.090000000000232561e+00 3.553049365683755667e+01
4.110000000000232134e+00 3.490993290363473989e+01
4.130000000000231708e+00 3.424385654427801740e+01
4.150000000000231282e+00 3.439481122912181377e+01
4.170000000000230855e+00 3.390783815851422389e+01
4.190000000000230429e+00 3.296835622435469304e+01
4.210000000000230003e+00 3.298886007403672949e+01
4.230000000000229576e+00 3.290697800321715505e+01
4.250000000000229150e+00 3.241712718325015885e+01
4.270000000000228724e+00 3.179375327415255370e+01
4.290000000000228297e+00 3.162699292927779382e+01
4.310000000000227871e+00 3.137268451135713576e+01
4.330000000000227445e+00 3.075907432255488061e+01
4.350000000000227018e+00 3.036340756648959172e+01
4.370000000000226592e+00 3.027620465302415198e+01
4.390000000000226166e+00 2.971508145860998340e+01
4.410000000000225739e+00 2.940377205243305170e+01
4.430000000000225313e+00 2.891182800831003519e+01
4.450000000000224887e+00 2.938468261339242105e+01
4.470000000000224460e+00 2.912683823757631885e+01
4.490000000000224034e+00 2.820341772123581947e+01
4.510000000000223608e+00 2.881295440398112717e+01
4.530000000000223181e+00 2.777736785037568623e+01
4.550000000000222755e+00 2.743695360051341225e+01
4.570000000000222329e+00 2.738825645719238011e+01
4.590000000000221902e+00 2.718930877667545687e+01
4.610000000000221476e+00 2.695279573075023549e+01
4.630000000000221050e+00 2.676374063393056701e+01
4.650000000000220624e+00 2.598565349843181238e+01
4.670000000000220197e+00 2.592709647207913903e+01
4.690000000000219771e+00 2.570320851353739044e+01
4.710000000000219345e+00 2.548439497032027745e+01
4.730000000000218918e+00 2.524750040047331368e+01
4.750000000000218492e+00 2.546681846042256936e+01
4.770000000000218066e+00 2.459042745598204149e+01
4.790000000000217639e+00 2.461802906305582539e+01
4.810000000000217213e+00 2.427558239398944906e+01
4.830000000000216787e+00 2.425609737212004546e+01
4.850000000000216360e+00 2.383171208271206964e+01
4.870000000000215934e+00 2.347991357194321793e+01
4.890000000000215508e+00 2.367086365716287233e+01
4.910000000000215081e+00 2.341090981162327367e+01
4.930000000000214655e+00 2.306332800883556544e+01
4.950000000000214229e+00 2.299616596428272075e+01
4.970000000000213802e+00 2.313019498523443218e+01
4.990000000000213376e+00 2.244070341466293783e+01
5.010000000000212950e+00 2.234349707624581782e+01
5.030000000000212523e+00 2.213213023161729254e+01
5.050000000000212097e+00 2.200317739644150450e+01
5.070000000000211671e+00 2.190113250029255454e+01
5.090000000000211244e+00 2.153015882262534220e+01
5.110000000000210818e+00 2.122342194641890245e+01
5.130000000000210392e+00 2.152817980312691404e+01
5.150000000000209965e+00 2.095689390414139552e+01
5.170000000000209539e+00 2.091139472139574806e+01
5.190000000000209113e+00 2.075818660780707603e+01
5.210000000000208686e+00 2.045381711315232209e+01
5.230000000000208260e+00 2.028507812259643472e+01
5.250000000000207834e+00 2.064182579599409451e+01
5.270000000000207407e+00 1.990031069622878945e+01
5.290000000000206981e+00 1.981040216508231566e+01
5.310000000000206555e+00 1.957455225871413518e+01
5.330000000000206128e+00 1.937572317543182621e+01
5.350000000000205702e+00 1.950972889058416015e+01
5.370000000000205276e+00 1.933970888028206403e+01
5.390000000000204849e+00 1.870143905721296207e+01
5.410000000000204423e+00 1.892522672839674058e+01
5.430000000000203997e+00 1.825828784800290094e+01
5.450000000000203570e+00 1.874794951070561311e+01
5.470000000000203144e+00 1.826722577701341876e+01
5.490000000000202718e+00 1.807834756723772784e+01
5.510000000000202292e+00 1.816622011300916029e+01
5.530000000000201865e+00 1.773176928944809205e+01
5.550000000000201439e+00 1.796605318604570911e+01
5.570000000000201013e+00 1.754721098202552909e+01
5.590000000000200586e+00 1.745177120534244608e+01
5.610000000000200160e+00 1.711390487010076811e+01
5.630000000000199734e+00 1.753579197030972381e+01
5.650000000000199307e+00 1.702440294040403401e+01
5.670000000000198881e+00 1.706011648868359032e+01
5.690000000000198455e+00 1.672423403417880294e+01
5.710000000000198028e+00 1.665409753548210503e+01
5.730000000000197602e+00 1.639031442268498395e+01
5.750000000000197176e+00 1.677139520100658032e+01
5.770000000000196749e+00 1.591082481519061531e+01
5.790000000000196323e+00 1.627822671597192539e+01
5.810000000000195897e+00 1.623402495856619510e+01
5.830000000000195470e+00 1.593657434042011900e+01
5.850000000000195044e+00 1.565377051030549538e+01
5.870000000000194618e+00 1.585058822883047824e+01
5.890000000000194191e+00 1.558868134313402187e+01
5.910000000000193765e+00 1.579858880163238410e+01
5.930000000000193339e+00 1.528964613115413407e+01
5.950000000000192912e+00 1.530249612377099488e+01
5.970000000000192486e+00 1.498727788767885549e+01
5.990000000000192060e+00 1.499753533243520565e+01
6.010000000000191633e+00 1.490193113309600470e+01
6.030000000000191207e+00 1.479009930884833679e+01
6.050000000000190781e+00 1.470301596955486545e+01
6.070000000000190354e+00 1.473409204545722595e+01
6.090000000000189928e+00 1.463449626054230279e+01
6.110000000000189502e+00 1.405625483904805861e+01
6.130000000000189075e+00 1.454674114017409181e+01
6.150000000000188649e+00 1.396713037157128845e+01
6.170000000000188223e+00 1.405080638085359723e+01
6.190000000000187796e+00 1.415384391778539985e+01
6.210000000000187370e+00 1.399456965343290982e+01
6.230000000000186944e+00 1.358071616499434064e+01
6.250000000000186517e+00 1.352877543887133172e+01
6.270000000000186091e+00 1.353298469798507853e+01
6.290000000000185665e+00 1.327723505411981542e+01
6.310000000000185238e+00 1.318895427902436701e+01
6.330000000000184812e+00 1.337802619224861722e+01
6.350000000000184386e+00 1.309343291599070547e+01
6.370000000000183960e+00 1.303050808310431385e+01
6.390000000000183533e+00 1.308578137884270731e+01
6.410000000000183107e+00 1.282151754184115866e+01
6.430000000000182681e+00 1.275656428158863065e+01
6.450000000000182254e+00 1.257370711246457518e+01
6.470000000000181828e+00 1.273862307407599026e+01
6.490000000000181402e+00 1.258038737505191662e+01
6.510000000000180975e+00 1.236148521965159297e+01
6.530000000000180549e+00 1.270962760782397005e+01
6.550000000000180123e+00 1.226804558068992179e+01
6.570000000000179696e+00 1.221007610479204786e+01
6.590000000000179270e+00 1.216409314931306263e+01
6.610000000000178844e+00 1.225745134518234103e+01
6.630000000000178417e+00 1.204211668322760431e+01
6.650000000000177991e+00 1.215752238513699801e+01
6.670000000000177565e+00 1.198103998038080142e+01
6.690000000000177138e+00 1.173993039893943724e+01
6.710000000000176712e+00 1.199985300663410648e+01
6.730000000000176286e+00 1.165176342624239325e+01
6.750000000000175859e+00 1.178498163572753832e+01
6.770000000000175433e+00 1.176818750946186931e+01
6.790000000000175007e+00 1.145824298400066610e+01
6.810000000000174580e+00 1.150353297479011161e+01
6.830000000000174154e+00 1.150083849291858407e+01
6.850000000000173728e+00 1.131583719580143033e+01
6.870000000000173301e+00 1.116656095884697031e+01
6.890000000000172875e+00 1.112078975944460879e+01
6.910000000000172449e+00 1.119706921301153280e+01
6.930000000000172022e+00 1.115764213045844855e+01
6.950000000000171596e+00 1.087320411160335532e+01
6.970000000000171170e+00 1.112020567132086057e+01
6.990000000000170743e+00 1.108267167160489386e+01
7.010000000000170317e+00 1.089043396521167928e+01
7.030000000000169891e+00 1.090458925779262955e+01
7.050000000000169464e+00 1.084767561873781538e+01
7.070000000000169038e+00 1.051431610950896456e+01
7.090000000000168612e+00 1.051862915707829949e+01
7.110000000000168185e+00 1.069672625803971222e+01
7.130000000000167759e+00 1.053616128040578381e+01
7.150000000000167333e+00 1.046841315829442642e+01
7.170000000000166906e+00 1.063546206049322684e+01
7.190000000000166480e+00 1.038384610166383659e+01
7.210000000000166054e+00 1.035409687345792840e+01
7.230000000000165628e+00 1.046091424916724044e+01
7.250000000000165201e+00 1.009824876786637837e+01
7.270000000000164775e+00 1.020073866420579911e+01
7.290000000000164349e+00 9.854724365486527304e+00
7.310000000000163922e+00 1.016707024815856641e+01
7.330000000000163496e+00 1.010676505625358246e+01
7.350000000000163070e+00 9.983666120628761576e+00
7.370000000000162643e+00 1.010713867916635245e+01
7.390000000000162217e+00 9.972276765203268667e+00
7.410000000000161791e+00 9.843969649189483917e+00
7.430000000000161364e+00 9.620331417163104248e+00
7.450000000000160938e+00 9.846408572333482212e+00
7.470000000000160512e+00 9.575249983108392371e+00
7.490000000000160085e+00 9.692848887303853189e+00
7.510000000000159659e+00 9.683074535076539036e+00
7.530000000000159233e+00 9.633015568663493511e+00
7.550000000000158806e+00 9.573027113604648974e+00
7.570000000000158380e+00 9.508021828077238169e+00
7.590000000000157954e+00 9.613962846257416928e+00
7.610000000000157527e+00 9.518093874248007680e+00
7.630000000000157101e+00 9.509324708491893929e+00
7.650000000000156675e+00 9.581585133836417967e+00
7.670000000000156248e+00 9.398649154506241388e+00
7.690000000000155822e+00 9.411731443371902373e+00
7.710000000000155396e+00 9.344775005972332238e+00
7.730000000000154969e+00 9.387958650970587016e+00
7.750000000000154543e+00 9.340343717166788906e+00
7.770000000000154117e+00 9.238079162739158079e+00
7.790000000000153690e+00 9.399096348130058232e+00
7.810000000000153264e+00 9.412891823651937884e+00
7.830000000000152838e+00 9.292403228221589373e+00
7.850000000000152411e+00 9.116224086373598823e+00
7.870000000000151985e+00 9.062347097964897458e+00
7.890000000000151559e+00 9.342120441474676795e+00
7.910000000000151132e+00 9.124389544499045712e+00
7.930000000000150706e+00 9.063032556312286658e+00
7.950000000000150280e+00 9.143113412859934286e+00
7.970000000000149853e+00 9.192516298110261275e+00
