# Redshift		Merger Rate Density [Gpc^-3yr^-1]
1.000000000031931770e-02 1.440416394529956392e+02
3.000000000031888964e-02 1.506588581068915289e+02
5.000000000031846331e-02 1.565705774208945513e+02
7.000000000031804392e-02 1.650015381593457278e+02
9.000000000031761760e-02 1.721218276129588673e+02
1.100000000003171913e-01 1.784616520251019551e+02
1.300000000003167511e-01 1.867986082789546174e+02
1.500000000003163247e-01 1.947024928825500183e+02
1.700000000003158984e-01 2.014782156275476268e+02
1.900000000003154721e-01 2.087198490850658175e+02
2.100000000003150458e-01 2.179213478748294506e+02
2.300000000003146194e-01 2.259567293643030723e+02
2.500000000003141931e-01 2.335772908731699715e+02
2.700000000003137668e-01 2.436663256347403603e+02
2.900000000003133405e-01 2.513221107334201747e+02
3.100000000003129141e-01 2.599359584422077774e+02
3.300000000003124878e-01 2.678813001049981608e+02
3.500000000003120615e-01 2.776790716309679965e+02
3.700000000003116352e-01 2.857644780881981887e+02
3.900000000003112088e-01 2.952031734640991090e+02
4.100000000003107825e-01 3.038901359661679749e+02
4.300000000003103562e-01 3.142227923496901667e+02
4.500000000003099299e-01 3.229295710493392448e+02
4.700000000003095035e-01 3.314523445030716289e+02
4.900000000003090772e-01 3.425895541160833204e+02
5.100000000003086509e-01 3.519937610372784320e+02
5.300000000003082246e-01 3.607304769144612351e+02
5.500000000003077982e-01 3.705233185476927247e+02
5.700000000003073719e-01 3.810664527729502424e+02
5.900000000003069456e-01 3.910975505587130101e+02
6.100000000003065193e-01 3.998784670838904276e+02
6.300000000003060929e-01 4.084914094125495012e+02
6.500000000003056666e-01 4.185989679746242587e+02
6.700000000003052403e-01 4.288538736123676927e+02
6.900000000003048140e-01 4.388855336496574751e+02
7.100000000003043876e-01 4.484453763579593328e+02
7.300000000003039613e-01 4.579359595114244144e+02
7.500000000003035350e-01 4.685885779027389049e+02
7.700000000003031086e-01 4.757423650016132228e+02
7.900000000003026823e-01 4.890449741269904393e+02
8.100000000003022560e-01 4.965983885051684297e+02
8.300000000003018297e-01 5.037554570576502897e+02
8.500000000003014033e-01 5.160463926806088466e+02
8.700000000003009770e-01 5.241403035108910444e+02
8.900000000003005507e-01 5.348352279496875781e+02
9.100000000003001244e-01 5.426015779757876771e+02
9.300000000002996980e-01 5.517390334137252239e+02
9.500000000002992717e-01 5.602506933606031225e+02
9.700000000002988454e-01 5.692308793133998961e+02
9.900000000002984191e-01 5.785520238777464783e+02
1.010000000000297993e+00 5.852165323885877797e+02
1.030000000000297566e+00 5.927955262838045201e+02
1.050000000000297140e+00 5.988409511668418190e+02
1.070000000000296714e+00 6.058396066824120680e+02
1.090000000000296287e+00 6.184259809887316806e+02
1.110000000000295861e+00 6.258225097169386117e+02
1.130000000000295435e+00 6.282040774909091851e+02
1.150000000000295008e+00 6.359504485263424840e+02
1.170000000000294582e+00 6.421608875851035236e+02
1.190000000000294156e+00 6.495452017496688768e+02
1.210000000000293729e+00 6.533868509864886391e+02
1.230000000000293303e+00 6.591084992111111660e+02
1.250000000000292877e+00 6.653785425679413947e+02
1.270000000000292451e+00 6.685076074217217865e+02
1.290000000000292024e+00 6.732021571572041694e+02
1.310000000000291598e+00 6.783000246788137702e+02
1.330000000000291172e+00 6.806117151025041494e+02
1.350000000000290745e+00 6.867278871097155388e+02
1.370000000000290319e+00 6.908792680563644808e+02
1.390000000000289893e+00 6.931133592101554086e+02
1.410000000000289466e+00 6.938821625436365821e+02
1.430000000000289040e+00 6.970524010275972842e+02
1.450000000000288614e+00 7.022626273137917678e+02
1.470000000000288187e+00 7.022880109256265087e+02
1.490000000000287761e+00 7.051694423532727569e+02
1.510000000000287335e+00 7.063776742335256813e+02
1.530000000000286908e+00 7.019605333005633838e+02
1.550000000000286482e+00 7.066436131283742270e+02
1.570000000000286056e+00 7.089694080690273950e+02
1.590000000000285629e+00 7.066960006972807378e+02
1.610000000000285203e+00 7.077271882359218580e+02
1.630000000000284777e+00 7.073856605447418815e+02
1.650000000000284350e+00 7.083824257863393541e+02
1.670000000000283924e+00 7.052827431907523987e+02
1.690000000000283498e+00 7.031779629522427513e+02
1.710000000000283071e+00 7.027728275008296350e+02
1.730000000000282645e+00 7.001554500788225823e+02
1.750000000000282219e+00 6.989504254692450331e+02
1.770000000000281792e+00 6.917595555919137951e+02
1.790000000000281366e+00 6.941216434922807821e+02
1.810000000000280940e+00 6.907474803147083549e+02
1.830000000000280513e+00 6.822656872305268507e+02
1.850000000000280087e+00 6.826931914959893675e+02
1.870000000000279661e+00 6.758286627725152584e+02
1.890000000000279234e+00 6.717984853625499682e+02
1.910000000000278808e+00 6.704565355332770196e+02
1.930000000000278382e+00 6.610847091155845874e+02
1.950000000000277955e+00 6.621287611976388234e+02
1.970000000000277529e+00 6.537148570026746484e+02
1.990000000000277103e+00 6.484590942300143297e+02
2.010000000000276899e+00 6.425024968562446475e+02
2.030000000000276472e+00 6.395843265527715857e+02
2.050000000000276046e+00 6.338126360310189966e+02
2.070000000000275620e+00 6.256865535914831753e+02
2.090000000000275193e+00 6.225111477788185539e+02
2.110000000000274767e+00 6.135955878653526270e+02
2.130000000000274341e+00 6.075165480194098109e+02
2.150000000000273914e+00 6.016107003413720804e+02
2.170000000000273488e+00 5.978161112025110242e+02
2.190000000000273062e+00 5.888475047898336925e+02
2.210000000000272635e+00 5.809577775244505347e+02
2.230000000000272209e+00 5.745010406500625777e+02
2.250000000000271783e+00 5.706615269826460235e+02
2.270000000000271356e+00 5.626650752935164519e+02
2.290000000000270930e+00 5.533465116874292562e+02
2.310000000000270504e+00 5.467306342043899576e+02
2.330000000000270077e+00 5.419995262732413721e+02
2.350000000000269651e+00 5.332097303257475005e+02
2.370000000000269225e+00 5.275902097919539528e+02
2.390000000000268798e+00 5.226705034474614422e+02
2.410000000000268372e+00 5.143559281186911676e+02
2.430000000000267946e+00 5.047443657076265708e+02
2.450000000000267519e+00 4.983109991346651668e+02
2.470000000000267093e+00 4.913593301649812020e+02
2.490000000000266667e+00 4.847306132555206091e+02
2.510000000000266240e+00 4.769163326126316065e+02
2.530000000000265814e+00 4.691967467259004252e+02
2.550000000000265388e+00 4.633554353266661110e+02
2.570000000000264961e+00 4.583819008246367162e+02
2.590000000000264535e+00 4.506576392975719045e+02
2.610000000000264109e+00 4.419845209282210590e+02
2.630000000000263682e+00 4.378646287683433798e+02
2.650000000000263256e+00 4.317332124629842269e+02
2.670000000000262830e+00 4.210179550089023905e+02
2.690000000000262403e+00 4.160061261413727607e+02
2.710000000000261977e+00 4.115603165222689199e+02
2.730000000000261551e+00 4.039064284434044794e+02
2.750000000000261124e+00 3.975760033700150871e+02
2.770000000000260698e+00 3.897677378445234240e+02
2.790000000000260272e+00 3.855500979478999284e+02
2.810000000000259845e+00 3.785848202784217165e+02
2.830000000000259419e+00 3.718240773433558388e+02
2.850000000000258993e+00 3.674813668036816807e+02
2.870000000000258567e+00 3.590699878915356749e+02
2.890000000000258140e+00 3.539909175793135887e+02
2.910000000000257714e+00 3.479313194794176525e+02
2.930000000000257288e+00 3.452488366766718855e+02
2.950000000000256861e+00 3.364750382496569046e+02
2.970000000000256435e+00 3.302277849526705609e+02
2.990000000000256009e+00 3.249518172383201318e+02
3.010000000000255582e+00 3.216439080847845275e+02
3.030000000000255156e+00 3.149712266646197349e+02
3.050000000000254730e+00 3.091933208676962295e+02
3.070000000000254303e+00 3.058381595419538712e+02
3.090000000000253877e+00 2.999805978749012638e+02
3.110000000000253451e+00 2.944672094641329068e+02
3.130000000000253024e+00 2.888264234604812941e+02
3.150000000000252598e+00 2.854536259066586013e+02
3.170000000000252172e+00 2.803126253492229125e+02
3.190000000000251745e+00 2.760828428326738617e+02
3.210000000000251319e+00 2.726397484001037128e+02
3.230000000000250893e+00 2.663219140657498656e+02
3.250000000000250466e+00 2.617243686679457255e+02
3.270000000000250040e+00 2.572490046627637525e+02
3.290000000000249614e+00 2.531507703634241579e+02
3.310000000000249187e+00 2.499844215647425472e+02
3.330000000000248761e+00 2.444682566609658920e+02
3.350000000000248335e+00 2.409731853654466249e+02
3.370000000000247908e+00 2.370686841751542318e+02
3.390000000000247482e+00 2.321643449510108894e+02
3.410000000000247056e+00 2.294552366569442086e+02
3.430000000000246629e+00 2.247282597082479754e+02
3.450000000000246203e+00 2.209038984839719717e+02
3.470000000000245777e+00 2.174882210012723078e+02
3.490000000000245350e+00 2.135942690720872577e+02
3.510000000000244924e+00 2.108841080947410092e+02
3.530000000000244498e+00 2.071346800676700468e+02
3.550000000000244071e+00 2.028277723219318034e+02
3.570000000000243645e+00 2.006201448921592601e+02
3.590000000000243219e+00 1.976049586301737975e+02
3.610000000000242792e+00 1.936961660717607003e+02
3.630000000000242366e+00 1.907297406517397462e+02
3.650000000000241940e+00 1.886146094585355399e+02
3.670000000000241513e+00 1.845083783033134921e+02
3.690000000000241087e+00 1.822685631786496288e+02
3.710000000000240661e+00 1.783367086591459554e+02
3.730000000000240234e+00 1.758725526265702399e+02
3.750000000000239808e+00 1.725454118822792680e+02
3.770000000000239382e+00 1.709168115589844490e+02
3.790000000000238956e+00 1.680320176343000469e+02
3.810000000000238529e+00 1.655417099080767684e+02
3.830000000000238103e+00 1.630513710457490220e+02
3.850000000000237677e+00 1.598018388907553629e+02
3.870000000000237250e+00 1.572359968162585062e+02
3.890000000000236824e+00 1.560832159812206896e+02
3.910000000000236398e+00 1.527067287070782413e+02
3.930000000000235971e+00 1.509960566478154647e+02
3.950000000000235545e+00 1.476613240263999387e+02
3.970000000000235119e+00 1.467960234418130767e+02
3.990000000000234692e+00 1.437153723376647463e+02
4.010000000000234266e+00 1.418816586096338597e+02
4.030000000000233840e+00 1.393512412598793162e+02
4.050000000000233413e+00 1.383621763759379348e+02
4.070000000000232987e+00 1.360003942686028893e+02
4.090000000000232561e+00 1.338351108734534023e+02
4.110000000000232134e+00 1.313815574590157951e+02
4.130000000000231708e+00 1.307112540316145726e+02
4.150000000000231282e+00 1.282692594072495638e+02
4.170000000000230855e+00 1.268544802845008377e+02
4.190000000000230429e+00 1.249387593993633914e+02
4.210000000000230003e+00 1.231021661874959108e+02
4.230000000000229576e+00 1.218808470693400068e+02
4.250000000000229150e+00 1.197494455689657968e+02
4.270000000000228724e+00 1.180252989218841435e+02
4.290000000000228297e+00 1.172040474903221821e+02
4.310000000000227871e+00 1.148924622287748747e+02
4.330000000000227445e+00 1.127683176208375500e+02
4.350000000000227018e+00 1.120794048876324780e+02
4.370000000000226592e+00 1.103034977594360697e+02
4.390000000000226166e+00 1.083017614068300958e+02
4.410000000000225739e+00 1.074957355643048942e+02
4.430000000000225313e+00 1.061583218701206306e+02
4.450000000000224887e+00 1.049730191739412248e+02
4.470000000000224460e+00 1.024823936250091805e+02
4.490000000000224034e+00 1.021494706745515373e+02
4.510000000000223608e+00 1.002177980968990880e+02
4.530000000000223181e+00 9.970129173069376805e+01
4.550000000000222755e+00 9.871879864630386692e+01
4.570000000000222329e+00 9.739259570582935055e+01
4.590000000000221902e+00 9.590136974414120630e+01
4.610000000000221476e+00 9.476183099981483338e+01
4.630000000000221050e+00 9.379621375037137909e+01
4.650000000000220624e+00 9.213299348284461132e+01
4.670000000000220197e+00 9.169257010963634968e+01
4.690000000000219771e+00 9.071126437963393130e+01
4.710000000000219345e+00 8.922717105799102910e+01
4.730000000000218918e+00 8.843208165133766840e+01
4.750000000000218492e+00 8.714169091442971649e+01
4.770000000000218066e+00 8.602454455441221626e+01
4.790000000000217639e+00 8.548076096496217247e+01
4.810000000000217213e+00 8.373407871030380534e+01
4.830000000000216787e+00 8.289133791092730519e+01
4.850000000000216360e+00 8.314047634463689462e+01
4.870000000000215934e+00 8.177775288927321640e+01
4.890000000000215508e+00 8.028754349762324694e+01
4.910000000000215081e+00 8.041881642834927391e+01
4.930000000000214655e+00 7.896425876977502867e+01
4.950000000000214229e+00 7.740305112390049658e+01
4.970000000000213802e+00 7.693678797537762648e+01
4.990000000000213376e+00 7.671101708617813131e+01
5.010000000000212950e+00 7.542275133014983624e+01
5.030000000000212523e+00 7.545322936382594037e+01
5.050000000000212097e+00 7.435065916464732538e+01
5.070000000000211671e+00 7.319344466331276067e+01
5.090000000000211244e+00 7.175656545151781529e+01
5.110000000000210818e+00 7.210640546307514853e+01
5.130000000000210392e+00 7.119475385233998566e+01
5.150000000000209965e+00 7.033372363555588436e+01
5.170000000000209539e+00 6.961031836722543176e+01
5.190000000000209113e+00 6.846091799067325212e+01
5.210000000000208686e+00 6.821315588089069593e+01
5.230000000000208260e+00 6.733949189652564371e+01
5.250000000000207834e+00 6.686378913995194750e+01
5.270000000000207407e+00 6.614406961577891764e+01
5.290000000000206981e+00 6.547926064778843624e+01
5.310000000000206555e+00 6.527486314300088566e+01
5.330000000000206128e+00 6.524721636164251493e+01
5.350000000000205702e+00 6.315107005574123633e+01
5.370000000000205276e+00 6.246138422720692063e+01
5.390000000000204849e+00 6.288438755019716808e+01
5.410000000000204423e+00 6.177115474363277059e+01
5.430000000000203997e+00 6.147063309279469934e+01
5.450000000000203570e+00 6.078049171657716698e+01
5.470000000000203144e+00 6.062911644216991647e+01
5.490000000000202718e+00 5.965572261352367178e+01
5.510000000000202292e+00 5.955384177642289956e+01
5.530000000000201865e+00 5.886587785672065820e+01
5.550000000000201439e+00 5.821084177604250698e+01
5.570000000000201013e+00 5.729837066657154310e+01
5.590000000000200586e+00 5.706387839258945149e+01
5.610000000000200160e+00 5.647863531298972362e+01
5.630000000000199734e+00 5.594037512485697050e+01
5.650000000000199307e+00 5.560330952772801538e+01
5.670000000000198881e+00 5.502008852053029386e+01
5.690000000000198455e+00 5.486720015750290713e+01
5.710000000000198028e+00 5.403143669926197390e+01
5.730000000000197602e+00 5.346407602920988467e+01
5.750000000000197176e+00 5.309919184877848863e+01
5.770000000000196749e+00 5.294683834882432905e+01
5.790000000000196323e+00 5.231575488427638732e+01
5.810000000000195897e+00 5.194009554694945763e+01
5.830000000000195470e+00 5.124798593815582848e+01
5.850000000000195044e+00 5.083110144623211113e+01
5.870000000000194618e+00 5.065672803398118162e+01
5.890000000000194191e+00 5.022543287146221047e+01
5.910000000000193765e+00 4.992797065390445965e+01
5.930000000000193339e+00 4.953140631982321196e+01
5.950000000000192912e+00 4.910560565341928907e+01
5.970000000000192486e+00 4.857985980214348842e+01
5.990000000000192060e+00 4.843652245182373406e+01
6.010000000000191633e+00 4.823306465939859322e+01
6.030000000000191207e+00 4.755376741796999340e+01
6.050000000000190781e+00 4.740329389130554461e+01
6.070000000000190354e+00 4.714305577428994809e+01
6.090000000000189928e+00 4.671828808237876984e+01
6.110000000000189502e+00 4.656856235270644362e+01
6.130000000000189075e+00 4.588996830271578631e+01
6.150000000000188649e+00 4.594066526965292496e+01
6.170000000000188223e+00 4.562471753144244957e+01
6.190000000000187796e+00 4.475045373882571909e+01
6.210000000000187370e+00 4.498224143366404348e+01
6.230000000000186944e+00 4.427073816358330305e+01
6.250000000000186517e+00 4.413196922915550147e+01
6.270000000000186091e+00 4.355790674894525694e+01
6.290000000000185665e+00 4.318894359390358062e+01
6.310000000000185238e+00 4.293875798799744814e+01
6.330000000000184812e+00 4.281877600484633462e+01
6.350000000000184386e+00 4.217433399828978935e+01
6.370000000000183960e+00 4.228216524193159387e+01
6.390000000000183533e+00 4.185095502283451907e+01
6.410000000000183107e+00 4.159659202222240992e+01
6.430000000000182681e+00 4.172943827858275512e+01
6.450000000000182254e+00 4.107190002090277403e+01
6.470000000000181828e+00 4.113699077863318365e+01
6.490000000000181402e+00 4.076602947383033637e+01
6.510000000000180975e+00 4.052416679595667404e+01
6.530000000000180549e+00 4.058410787327269986e+01
6.550000000000180123e+00 4.023512940147860917e+01
6.570000000000179696e+00 4.030637989057418480e+01
6.590000000000179270e+00 4.010270365550589844e+01
6.610000000000178844e+00 3.960987399634426964e+01
6.630000000000178417e+00 3.951722786657943942e+01
6.650000000000177991e+00 3.923843533012080798e+01
6.670000000000177565e+00 3.914054635512479763e+01
6.690000000000177138e+00 3.910552933676368781e+01
6.710000000000176712e+00 3.865920359662312933e+01
6.730000000000176286e+00 3.874707580985913324e+01
6.750000000000175859e+00 3.879947676776371424e+01
6.770000000000175433e+00 3.819067595670433946e+01
6.790000000000175007e+00 3.801739438756556666e+01
6.810000000000174580e+00 3.818330831542507298e+01
6.830000000000174154e+00 3.781056577376302386e+01
6.850000000000173728e+00 3.777405517395823864e+01
6.870000000000173301e+00 3.726894787179253399e+01
6.890000000000172875e+00 3.752291992602166459e+01
6.910000000000172449e+00 3.753983455580752349e+01
6.930000000000172022e+00 3.731330822632735789e+01
6.950000000000171596e+00 3.720989029467549614e+01
6.970000000000171170e+00 3.702983458883735324e+01
6.990000000000170743e+00 3.696828647071207996e+01
7.010000000000170317e+00 3.691660987969221708e+01
7.030000000000169891e+00 3.680452463257238804e+01
7.050000000000169464e+00 3.699447971819534331e+01
7.070000000000169038e+00 3.670230603788245105e+01
7.090000000000168612e+00 3.678492045489527840e+01
7.110000000000168185e+00 3.661782123384949017e+01
7.130000000000167759e+00 3.678911698729881152e+01
7.150000000000167333e+00 3.659101615648548744e+01
7.170000000000166906e+00 3.654131977315998370e+01
7.190000000000166480e+00 3.659240388219764384e+01
7.210000000000166054e+00 3.692300606728728241e+01
7.230000000000165628e+00 3.649645448923578783e+01
7.250000000000165201e+00 3.643835891394826376e+01
7.270000000000164775e+00 3.665247501176779821e+01
7.290000000000164349e+00 3.645982205539924337e+01
7.310000000000163922e+00 3.640421702957476668e+01
7.330000000000163496e+00 3.641352820161102954e+01
7.350000000000163070e+00 3.670718032952149201e+01
7.370000000000162643e+00 3.642343242119812885e+01
7.390000000000162217e+00 3.637558374223076640e+01
7.410000000000161791e+00 3.648023235714254753e+01
7.430000000000161364e+00 3.664926227491292110e+01
7.450000000000160938e+00 3.644087705728026805e+01
7.470000000000160512e+00 3.650906392375168963e+01
7.490000000000160085e+00 3.672844918756279498e+01
7.510000000000159659e+00 3.660204082907178247e+01
7.530000000000159233e+00 3.671502111935043899e+01
7.550000000000158806e+00 3.683080942652452450e+01
7.570000000000158380e+00 3.690102436477522474e+01
7.590000000000157954e+00 3.675139993298165564e+01
7.610000000000157527e+00 3.675065006757827746e+01
7.630000000000157101e+00 3.683927683749369208e+01
7.650000000000156675e+00 3.704113497804126354e+01
7.670000000000156248e+00 3.716165210603529090e+01
7.690000000000155822e+00 3.756648176128968686e+01
7.710000000000155396e+00 3.713942691758796144e+01
7.730000000000154969e+00 3.713561207011272813e+01
7.750000000000154543e+00 3.752523047603341411e+01
7.770000000000154117e+00 3.740402344826482306e+01
7.790000000000153690e+00 3.739989383501290376e+01
7.810000000000153264e+00 3.751647324705974995e+01
7.830000000000152838e+00 3.769974003894071046e+01
7.850000000000152411e+00 3.775764380507745699e+01
7.870000000000151985e+00 3.774919288950388818e+01
7.890000000000151559e+00 3.775914318289707694e+01
7.910000000000151132e+00 3.779185192863488396e+01
7.930000000000150706e+00 3.793418147419888697e+01
7.950000000000150280e+00 3.800278798185856743e+01
7.970000000000149853e+00 3.823308283755057602e+01
