# Redshift		Merger Rate Density [Gpc^-3yr^-1]
1.000000000031931770e-02 1.070604002427011636e+02
3.000000000031888964e-02 1.124213192022792356e+02
5.000000000031846331e-02 1.179132855168052885e+02
7.000000000031804392e-02 1.234756759720479948e+02
9.000000000031761760e-02 1.292973840580378067e+02
1.100000000003171913e-01 1.350955010850274505e+02
1.300000000003167511e-01 1.413967568350977331e+02
1.500000000003163247e-01 1.476830032646116138e+02
1.700000000003158984e-01 1.539702651075781716e+02
1.900000000003154721e-01 1.606861388370737700e+02
2.100000000003150458e-01 1.673305699434359042e+02
2.300000000003146194e-01 1.741484789001102627e+02
2.500000000003141931e-01 1.813686895467300815e+02
2.700000000003137668e-01 1.885713895111873057e+02
2.900000000003133405e-01 1.958549718480330171e+02
3.100000000003129141e-01 2.036428434547971165e+02
3.300000000003124878e-01 2.108947231942554197e+02
3.500000000003120615e-01 2.189482742235733781e+02
3.700000000003116352e-01 2.268348511145664190e+02
3.900000000003112088e-01 2.349655440201136685e+02
4.100000000003107825e-01 2.431141837231332374e+02
4.300000000003103562e-01 2.515306254958191232e+02
4.500000000003099299e-01 2.603486508820205358e+02
4.700000000003095035e-01 2.687266043594743792e+02
4.900000000003090772e-01 2.775878588827627027e+02
5.100000000003086509e-01 2.866731330334404220e+02
5.300000000003082246e-01 2.956690675180450398e+02
5.500000000003077982e-01 3.047660955909054792e+02
5.700000000003073719e-01 3.144615888785226048e+02
5.900000000003069456e-01 3.239325860401577870e+02
6.100000000003065193e-01 3.334251207098342888e+02
6.300000000003060929e-01 3.432007959907329564e+02
6.500000000003056666e-01 3.532963158397702159e+02
6.700000000003052403e-01 3.628198540682947169e+02
6.900000000003048140e-01 3.733482272567468954e+02
7.100000000003043876e-01 3.836523024967593756e+02
7.300000000003039613e-01 3.939273667325414294e+02
7.500000000003035350e-01 4.042484041582906116e+02
7.700000000003031086e-01 4.145183806715735386e+02
7.900000000003026823e-01 4.255036105003350144e+02
8.100000000003022560e-01 4.360112430847342466e+02
8.300000000003018297e-01 4.468315880571569210e+02
8.500000000003014033e-01 4.576444466703597982e+02
8.700000000003009770e-01 4.690440484830519949e+02
8.900000000003005507e-01 4.796866880981841632e+02
9.100000000003001244e-01 4.905450583928518427e+02
9.300000000002996980e-01 5.014324230579716186e+02
9.500000000002992717e-01 5.130747820675020421e+02
9.700000000002988454e-01 5.235405143822258651e+02
9.900000000002984191e-01 5.349273129642145932e+02
1.010000000000297993e+00 5.458502409504438901e+02
1.030000000000297566e+00 5.569591352374113740e+02
1.050000000000297140e+00 5.681249860887850218e+02
1.070000000000296714e+00 5.789963981747697517e+02
1.090000000000296287e+00 5.895486032478321476e+02
1.110000000000295861e+00 6.014329309588038086e+02
1.130000000000295435e+00 6.120706596403391586e+02
1.150000000000295008e+00 6.221268508498189931e+02
1.170000000000294582e+00 6.328394516733025057e+02
1.190000000000294156e+00 6.439660338023666100e+02
1.210000000000293729e+00 6.543592437398134507e+02
1.230000000000293303e+00 6.645577473958842347e+02
1.250000000000292877e+00 6.745941751771576946e+02
1.270000000000292451e+00 6.844520005543128036e+02
1.290000000000292024e+00 6.947639552563849747e+02
1.310000000000291598e+00 7.045265986245937029e+02
1.330000000000291172e+00 7.141792605203526136e+02
1.350000000000290745e+00 7.236797244036962411e+02
1.370000000000290319e+00 7.327509257618391985e+02
1.390000000000289893e+00 7.414038302962480884e+02
1.410000000000289466e+00 7.502088409864015830e+02
1.430000000000289040e+00 7.587192289585840399e+02
1.450000000000288614e+00 7.671424825502463136e+02
1.470000000000288187e+00 7.753468749745152309e+02
1.490000000000287761e+00 7.840258783966173723e+02
1.510000000000287335e+00 7.923978674530868602e+02
1.530000000000286908e+00 7.989672836679295642e+02
1.550000000000286482e+00 8.067959696380347623e+02
1.570000000000286056e+00 8.134419883353160685e+02
1.590000000000285629e+00 8.201460574007352307e+02
1.610000000000285203e+00 8.272382839136437269e+02
1.630000000000284777e+00 8.355646164942410223e+02
1.650000000000284350e+00 8.430803540358751889e+02
1.670000000000283924e+00 8.501028028149839884e+02
1.690000000000283498e+00 8.581012756456387933e+02
1.710000000000283071e+00 8.658923586987788212e+02
1.730000000000282645e+00 8.707995971166419622e+02
1.750000000000282219e+00 8.709178465757821641e+02
1.770000000000281792e+00 8.672472527043972832e+02
1.790000000000281366e+00 8.639031909022268110e+02
1.810000000000280940e+00 8.629369486538628280e+02
1.830000000000280513e+00 8.634216006950056226e+02
1.850000000000280087e+00 8.632463420737134356e+02
1.870000000000279661e+00 8.651027631018182547e+02
1.890000000000279234e+00 8.648335140903699312e+02
1.910000000000278808e+00 8.675112909391194762e+02
1.930000000000278382e+00 8.710733687542655161e+02
1.950000000000277955e+00 8.728767605120115149e+02
1.970000000000277529e+00 8.717924758711432105e+02
1.990000000000277103e+00 8.691083906774201751e+02
2.010000000000276899e+00 8.637075474674417137e+02
2.030000000000276472e+00 8.608553409103427612e+02
2.050000000000276046e+00 8.569516957731460707e+02
2.070000000000275620e+00 8.551637476315445383e+02
2.090000000000275193e+00 8.537584276878910714e+02
2.110000000000274767e+00 8.508459543775945804e+02
2.130000000000274341e+00 8.480674777141121012e+02
2.150000000000273914e+00 8.440569709848983848e+02
2.170000000000273488e+00 8.381072842522462452e+02
2.190000000000273062e+00 8.328977330542360278e+02
2.210000000000272635e+00 8.258665878680167225e+02
2.230000000000272209e+00 8.174539610826574290e+02
2.250000000000271783e+00 8.073183017767468073e+02
2.270000000000271356e+00 7.960657225488052973e+02
2.290000000000270930e+00 7.880483860540109617e+02
2.310000000000270504e+00 7.810217577597958325e+02
2.330000000000270077e+00 7.750518245719852075e+02
2.350000000000269651e+00 7.688567717381017701e+02
2.370000000000269225e+00 7.620686866144387750e+02
2.390000000000268798e+00 7.571943582201156460e+02
2.410000000000268372e+00 7.481245940056735435e+02
2.430000000000267946e+00 7.386586850701617095e+02
2.450000000000267519e+00 7.292496781593371225e+02
2.470000000000267093e+00 7.214637216360277989e+02
2.490000000000266667e+00 7.139131970726623422e+02
2.510000000000266240e+00 7.049219558319903172e+02
2.530000000000265814e+00 6.965668324473097073e+02
2.550000000000265388e+00 6.882155489282484950e+02
2.570000000000264961e+00 6.795144206682676895e+02
2.590000000000264535e+00 6.713025964711314373e+02
2.610000000000264109e+00 6.631292533752624649e+02
2.630000000000263682e+00 6.552811083550266176e+02
2.650000000000263256e+00 6.473400910517900684e+02
2.670000000000262830e+00 6.393273838780621645e+02
2.690000000000262403e+00 6.311298093806572069e+02
2.710000000000261977e+00 6.232780704958231581e+02
2.730000000000261551e+00 6.154260452255640530e+02
2.750000000000261124e+00 6.076663282070727519e+02
2.770000000000260698e+00 5.989712424422607455e+02
2.790000000000260272e+00 5.916216972105839886e+02
2.810000000000259845e+00 5.837260391286379217e+02
2.830000000000259419e+00 5.759808970951489755e+02
2.850000000000258993e+00 5.684686993491609428e+02
2.870000000000258567e+00 5.611183063428622972e+02
2.890000000000258140e+00 5.536930810019099454e+02
2.910000000000257714e+00 5.463311761148098640e+02
2.930000000000257288e+00 5.397251688535576477e+02
2.950000000000256861e+00 5.323027341724073267e+02
2.970000000000256435e+00 5.242645475316735428e+02
2.990000000000256009e+00 5.168472161360839436e+02
3.010000000000255582e+00 5.089020486157841674e+02
3.030000000000255156e+00 5.018815890241901343e+02
3.050000000000254730e+00 4.948680739696141018e+02
3.070000000000254303e+00 4.880283895441229447e+02
3.090000000000253877e+00 4.810565044767908489e+02
3.110000000000253451e+00 4.745153395614609622e+02
3.130000000000253024e+00 4.686292485275662330e+02
3.150000000000252598e+00 4.628548270914342879e+02
3.170000000000252172e+00 4.563484278552829210e+02
3.190000000000251745e+00 4.505196528544877879e+02
3.210000000000251319e+00 4.449402959188973909e+02
3.230000000000250893e+00 4.390473052193288481e+02
3.250000000000250466e+00 4.335124901069929706e+02
3.270000000000250040e+00 4.266073334284092198e+02
3.290000000000249614e+00 4.190452637018847781e+02
3.310000000000249187e+00 4.103681515154341923e+02
3.330000000000248761e+00 4.029823964490782942e+02
3.350000000000248335e+00 3.951944587720705613e+02
3.370000000000247908e+00 3.876264154703231952e+02
3.390000000000247482e+00 3.809426418450261735e+02
3.410000000000247056e+00 3.746589461263458247e+02
3.430000000000246629e+00 3.686372489360832105e+02
3.450000000000246203e+00 3.629390406976171448e+02
3.470000000000245777e+00 3.576041423974633062e+02
3.490000000000245350e+00 3.528852682644420042e+02
3.510000000000244924e+00 3.478912581854652899e+02
3.530000000000244498e+00 3.428944092952635287e+02
3.550000000000244071e+00 3.382099399729808624e+02
3.570000000000243645e+00 3.342937386676244387e+02
3.590000000000243219e+00 3.297443830331645813e+02
3.610000000000242792e+00 3.253726891006515416e+02
3.630000000000242366e+00 3.202148969006526045e+02
3.650000000000241940e+00 3.145312471983573346e+02
3.670000000000241513e+00 3.092853999234417870e+02
3.690000000000241087e+00 3.037654049002397301e+02
3.710000000000240661e+00 2.983530022559698978e+02
3.730000000000240234e+00 2.936382066899862480e+02
3.750000000000239808e+00 2.896231230491870292e+02
3.770000000000239382e+00 2.855309103452308932e+02
3.790000000000238956e+00 2.812919262474027278e+02
3.810000000000238529e+00 2.774616952758535717e+02
3.830000000000238103e+00 2.737944847968774980e+02
3.850000000000237677e+00 2.702751508868742576e+02
3.870000000000237250e+00 2.658594257610448608e+02
3.890000000000236824e+00 2.615206791590123885e+02
3.910000000000236398e+00 2.573164177687186225e+02
3.930000000000235971e+00 2.534860551721899924e+02
3.950000000000235545e+00 2.497672634932617655e+02
3.970000000000235119e+00 2.458524660015833092e+02
3.990000000000234692e+00 2.421845381413587575e+02
4.010000000000234266e+00 2.383362441548266872e+02
4.030000000000233840e+00 2.341612771453542337e+02
4.050000000000233413e+00 2.306211101054411756e+02
4.070000000000232987e+00 2.273428525930442845e+02
4.090000000000232561e+00 2.244016993530541129e+02
4.110000000000232134e+00 2.211851787701466776e+02
4.130000000000231708e+00 2.178662025702276424e+02
4.150000000000231282e+00 2.149499337216057597e+02
4.170000000000230855e+00 2.123628701024842371e+02
4.190000000000230429e+00 2.096145849393060132e+02
4.210000000000230003e+00 2.068517780798459853e+02
4.230000000000229576e+00 2.036765989261633933e+02
4.250000000000229150e+00 2.002752927947397552e+02
4.270000000000228724e+00 1.969746505853316592e+02
4.290000000000228297e+00 1.931624147823093836e+02
4.310000000000227871e+00 1.899950549314270631e+02
4.330000000000227445e+00 1.867851834020743524e+02
4.350000000000227018e+00 1.837817245499130649e+02
4.370000000000226592e+00 1.808321846052116655e+02
4.390000000000226166e+00 1.782899865727102906e+02
4.410000000000225739e+00 1.757692831159672551e+02
4.430000000000225313e+00 1.733374167895041751e+02
4.450000000000224887e+00 1.709675805291655024e+02
4.470000000000224460e+00 1.692010269743441313e+02
4.490000000000224034e+00 1.671078724220632239e+02
4.510000000000223608e+00 1.654445797329316008e+02
4.530000000000223181e+00 1.631967697547274838e+02
4.550000000000222755e+00 1.610530283103062743e+02
4.570000000000222329e+00 1.589267203981268608e+02
4.590000000000221902e+00 1.565630124519527158e+02
4.610000000000221476e+00 1.549188489292138229e+02
4.630000000000221050e+00 1.526552231005380236e+02
4.650000000000220624e+00 1.507723752272139848e+02
4.670000000000220197e+00 1.485355403896086273e+02
4.690000000000219771e+00 1.464360582729985651e+02
4.710000000000219345e+00 1.442035262498291388e+02
4.730000000000218918e+00 1.419006363922001412e+02
4.750000000000218492e+00 1.398243441135049068e+02
4.770000000000218066e+00 1.378895270570786238e+02
4.790000000000217639e+00 1.364260759501069913e+02
4.810000000000217213e+00 1.345291578546613209e+02
4.830000000000216787e+00 1.335559981235454075e+02
4.850000000000216360e+00 1.314190597178820212e+02
4.870000000000215934e+00 1.300741952279784641e+02
4.890000000000215508e+00 1.284854758357543858e+02
4.910000000000215081e+00 1.269045432780580143e+02
4.930000000000214655e+00 1.258510194809877873e+02
4.950000000000214229e+00 1.242868556764938575e+02
4.970000000000213802e+00 1.228262538356113538e+02
4.990000000000213376e+00 1.212921899434183644e+02
5.010000000000212950e+00 1.195127565198344541e+02
5.030000000000212523e+00 1.175004120927099933e+02
5.050000000000212097e+00 1.158658596196496831e+02
5.070000000000211671e+00 1.139978102176712582e+02
5.090000000000211244e+00 1.126619170323857304e+02
5.110000000000210818e+00 1.107366884145572925e+02
5.130000000000210392e+00 1.088848779875097108e+02
5.150000000000209965e+00 1.071967133758667359e+02
5.170000000000209539e+00 1.058050142835319463e+02
5.190000000000209113e+00 1.041703469677349716e+02
5.210000000000208686e+00 1.027091873649217462e+02
5.230000000000208260e+00 1.013453063818014925e+02
5.250000000000207834e+00 1.004234779182969959e+02
5.270000000000207407e+00 9.893640583256600962e+01
5.290000000000206981e+00 9.790743100979089775e+01
5.310000000000206555e+00 9.688194198589785344e+01
5.330000000000206128e+00 9.561834007024702942e+01
5.350000000000205702e+00 9.482764591449826241e+01
5.370000000000205276e+00 9.359251777302300468e+01
5.390000000000204849e+00 9.260855768243715147e+01
5.410000000000204423e+00 9.178698541780872233e+01
5.430000000000203997e+00 9.097476883024060612e+01
5.450000000000203570e+00 8.991651096007451827e+01
5.470000000000203144e+00 8.847570284679125052e+01
5.490000000000202718e+00 8.774014781663044005e+01
5.510000000000202292e+00 8.650518984749288620e+01
5.530000000000201865e+00 8.543893336336529387e+01
5.550000000000201439e+00 8.478975192805515348e+01
5.570000000000201013e+00 8.361133093549440787e+01
5.590000000000200586e+00 8.283018943112149657e+01
5.610000000000200160e+00 8.184019391800121923e+01
5.630000000000199734e+00 8.061538242845570323e+01
5.650000000000199307e+00 7.929425583091463636e+01
5.670000000000198881e+00 7.849470463520634667e+01
5.690000000000198455e+00 7.696875448700475886e+01
5.710000000000198028e+00 7.619525221867598930e+01
5.730000000000197602e+00 7.510559599001305742e+01
5.750000000000197176e+00 7.399619280540190402e+01
5.770000000000196749e+00 7.308097263601484883e+01
5.790000000000196323e+00 7.222933385683201379e+01
5.810000000000195897e+00 7.143286898408307195e+01
5.830000000000195470e+00 7.078832351330461847e+01
5.850000000000195044e+00 6.989931741799900067e+01
5.870000000000194618e+00 6.921313296269009641e+01
5.890000000000194191e+00 6.831505352358361449e+01
5.910000000000193765e+00 6.773310198300623597e+01
5.930000000000193339e+00 6.708693568426033949e+01
5.950000000000192912e+00 6.628042300252303676e+01
5.970000000000192486e+00 6.577994965153072826e+01
5.990000000000192060e+00 6.517698780678954051e+01
6.010000000000191633e+00 6.436732308166322980e+01
6.030000000000191207e+00 6.375773875989042949e+01
6.050000000000190781e+00 6.319149778611924972e+01
6.070000000000190354e+00 6.242259062482712295e+01
6.090000000000189928e+00 6.178549636010134805e+01
6.110000000000189502e+00 6.111513771877263679e+01
6.130000000000189075e+00 6.027778682344863626e+01
6.150000000000188649e+00 5.958749922538218158e+01
6.170000000000188223e+00 5.879511556268929695e+01
6.190000000000187796e+00 5.814610731323267601e+01
6.210000000000187370e+00 5.732165232064976834e+01
6.230000000000186944e+00 5.648997294132805536e+01
6.250000000000186517e+00 5.578221548291985243e+01
6.270000000000186091e+00 5.513308553619453534e+01
6.290000000000185665e+00 5.444658907124906477e+01
6.310000000000185238e+00 5.387326343342775914e+01
6.330000000000184812e+00 5.332837337862889626e+01
6.350000000000184386e+00 5.281071364709984550e+01
6.370000000000183960e+00 5.222408863701290471e+01
6.390000000000183533e+00 5.173468322746698789e+01
6.410000000000183107e+00 5.134251453579852154e+01
6.430000000000182681e+00 5.086877961035740725e+01
6.450000000000182254e+00 5.049145305106220860e+01
6.470000000000181828e+00 4.987338998776267118e+01
6.490000000000181402e+00 4.928224206613984393e+01
6.510000000000180975e+00 4.885101235087655169e+01
6.530000000000180549e+00 4.829300878916901496e+01
6.550000000000180123e+00 4.796991744084624543e+01
6.570000000000179696e+00 4.748540507015684398e+01
6.590000000000179270e+00 4.715387878546567890e+01
6.610000000000178844e+00 4.663105430946085050e+01
6.630000000000178417e+00 4.626941702097080622e+01
6.650000000000177991e+00 4.568321424106250817e+01
6.670000000000177565e+00 4.524253310946233597e+01
6.690000000000177138e+00 4.478119744957348303e+01
6.710000000000176712e+00 4.437598424601335978e+01
6.730000000000176286e+00 4.371606828473061768e+01
6.750000000000175859e+00 4.319739483171203887e+01
6.770000000000175433e+00 4.283811964017758100e+01
6.790000000000175007e+00 4.232452975702680931e+01
6.810000000000174580e+00 4.177102467531037888e+01
6.830000000000174154e+00 4.149220821239288171e+01
6.850000000000173728e+00 4.101807351944081148e+01
6.870000000000173301e+00 4.058320849705047806e+01
6.890000000000172875e+00 4.036320713477751099e+01
6.910000000000172449e+00 3.981693460490452452e+01
6.930000000000172022e+00 3.969134641282461473e+01
6.950000000000171596e+00 3.923699560786935336e+01
6.970000000000171170e+00 3.899201333309873974e+01
6.990000000000170743e+00 3.856389399964909614e+01
7.010000000000170317e+00 3.830815518756528348e+01
7.030000000000169891e+00 3.790890398441059261e+01
7.050000000000169464e+00 3.769087448504205184e+01
7.070000000000169038e+00 3.738093457357119576e+01
7.090000000000168612e+00 3.699493199979832525e+01
7.110000000000168185e+00 3.662916215109099483e+01
7.130000000000167759e+00 3.643998197572851439e+01
7.150000000000167333e+00 3.600180345008817540e+01
7.170000000000166906e+00 3.582372695929838358e+01
7.190000000000166480e+00 3.542555676032670675e+01
7.210000000000166054e+00 3.521706456310256073e+01
7.230000000000165628e+00 3.472832867010291125e+01
7.250000000000165201e+00 3.443713061559542155e+01
7.270000000000164775e+00 3.406410774982377632e+01
7.290000000000164349e+00 3.382406123624167549e+01
7.310000000000163922e+00 3.338674936700846985e+01
7.330000000000163496e+00 3.312733714078797220e+01
7.350000000000163070e+00 3.295255626674816085e+01
7.370000000000162643e+00 3.267306406923708550e+01
7.390000000000162217e+00 3.241548844142291586e+01
7.410000000000161791e+00 3.215584414366357180e+01
7.430000000000161364e+00 3.195452088755048692e+01
7.450000000000160938e+00 3.179526231017066706e+01
7.470000000000160512e+00 3.153998462731203745e+01
7.490000000000160085e+00 3.130147030235277228e+01
7.510000000000159659e+00 3.109965575648813640e+01
7.530000000000159233e+00 3.093852123606123428e+01
7.550000000000158806e+00 3.065576053749518337e+01
7.570000000000158380e+00 3.023062038736882684e+01
7.590000000000157954e+00 3.013460847386945218e+01
7.610000000000157527e+00 3.000210977940511370e+01
7.630000000000157101e+00 2.957338350983860309e+01
7.650000000000156675e+00 2.933932028197554942e+01
7.670000000000156248e+00 2.920199167318936517e+01
7.690000000000155822e+00 2.895596952890007003e+01
7.710000000000155396e+00 2.864795818511481329e+01
7.730000000000154969e+00 2.843723728391249139e+01
7.750000000000154543e+00 2.824889357882955210e+01
7.770000000000154117e+00 2.804309931450949378e+01
7.790000000000153690e+00 2.789451023907336591e+01
7.810000000000153264e+00 2.769700768657798307e+01
7.830000000000152838e+00 2.762228078669218689e+01
7.850000000000152411e+00 2.730371627105491683e+01
7.870000000000151985e+00 2.726565366299686488e+01
7.890000000000151559e+00 2.699591158860350504e+01
7.910000000000151132e+00 2.671519788257771566e+01
7.930000000000150706e+00 2.661026592493650611e+01
7.950000000000150280e+00 2.639154793329444360e+01
7.970000000000149853e+00 2.625405901896130700e+01
