# Redshift		Merger Rate Density [Gpc^-3yr^-1]
1.000000000031931770e-02 1.006860444270422335e+02
3.000000000031888964e-02 1.055540904348080318e+02
5.000000000031846331e-02 1.108456782908130691e+02
7.000000000031804392e-02 1.161226360213828457e+02
9.000000000031761760e-02 1.215842218052722359e+02
1.100000000003171913e-01 1.273064818194326762e+02
1.300000000003167511e-01 1.329480868030596241e+02
1.500000000003163247e-01 1.389188320300999635e+02
1.700000000003158984e-01 1.448668976825571804e+02
1.900000000003154721e-01 1.510509424794285280e+02
2.100000000003150458e-01 1.575191973033196007e+02
2.300000000003146194e-01 1.637934465353611699e+02
2.500000000003141931e-01 1.701702953617430012e+02
2.700000000003137668e-01 1.772518555738545842e+02
2.900000000003133405e-01 1.840784723213735390e+02
3.100000000003129141e-01 1.912101351780512744e+02
3.300000000003124878e-01 1.980200848143585972e+02
3.500000000003120615e-01 2.057763897024078403e+02
3.700000000003116352e-01 2.130982917979700630e+02
3.900000000003112088e-01 2.205008316479708412e+02
4.100000000003107825e-01 2.287415199706918543e+02
4.300000000003103562e-01 2.362285360926333624e+02
4.500000000003099299e-01 2.439784305564411682e+02
4.700000000003095035e-01 2.522503000719405577e+02
4.900000000003090772e-01 2.605869362900855322e+02
5.100000000003086509e-01 2.692082790113849455e+02
5.300000000003082246e-01 2.777083251481797674e+02
5.500000000003077982e-01 2.870426857398135780e+02
5.700000000003073719e-01 2.951811533794821685e+02
5.900000000003069456e-01 3.046157087832828552e+02
6.100000000003065193e-01 3.140644126839102341e+02
6.300000000003060929e-01 3.226726269301716457e+02
6.500000000003056666e-01 3.325819146840477742e+02
6.700000000003052403e-01 3.418684430610881577e+02
6.900000000003048140e-01 3.510645933986138516e+02
7.100000000003043876e-01 3.613125181731491580e+02
7.300000000003039613e-01 3.706995712163629833e+02
7.500000000003035350e-01 3.809389674855414682e+02
7.700000000003031086e-01 3.906889940355287649e+02
7.900000000003026823e-01 4.016217018734012072e+02
8.100000000003022560e-01 4.113775718664545593e+02
8.300000000003018297e-01 4.214274084352979912e+02
8.500000000003014033e-01 4.328872747093238900e+02
8.700000000003009770e-01 4.422556226026484865e+02
8.900000000003005507e-01 4.530523772437891807e+02
9.100000000003001244e-01 4.648209775843391753e+02
9.300000000002996980e-01 4.745981427147207228e+02
9.500000000002992717e-01 4.847075966715421487e+02
9.700000000002988454e-01 4.969031764639341873e+02
9.900000000002984191e-01 5.065105152417456793e+02
1.010000000000297993e+00 5.164113208993014723e+02
1.030000000000297566e+00 5.280770148559287236e+02
1.050000000000297140e+00 5.385689534283412740e+02
1.070000000000296714e+00 5.496155422879652406e+02
1.090000000000296287e+00 5.603791957074942047e+02
1.110000000000295861e+00 5.711635573015611271e+02
1.130000000000295435e+00 5.810147098607341150e+02
1.150000000000295008e+00 5.920031696874438012e+02
1.170000000000294582e+00 6.020679488535315613e+02
1.190000000000294156e+00 6.134169106812452128e+02
1.210000000000293729e+00 6.227417683729100872e+02
1.230000000000293303e+00 6.322623086837389792e+02
1.250000000000292877e+00 6.439054883903328346e+02
1.270000000000292451e+00 6.529418721656613798e+02
1.290000000000292024e+00 6.638615436767975098e+02
1.310000000000291598e+00 6.734709352920975789e+02
1.330000000000291172e+00 6.821122594422259908e+02
1.350000000000290745e+00 6.901961625041051320e+02
1.370000000000290319e+00 7.004769527728249159e+02
1.390000000000289893e+00 7.090680790400806472e+02
1.410000000000289466e+00 7.182272598846719802e+02
1.430000000000289040e+00 7.265531882587127939e+02
1.450000000000288614e+00 7.357507605388934735e+02
1.470000000000288187e+00 7.452785446369987312e+02
1.490000000000287761e+00 7.539986836610805767e+02
1.510000000000287335e+00 7.608355026536968353e+02
1.530000000000286908e+00 7.674141439035454368e+02
1.550000000000286482e+00 7.742613683815834520e+02
1.570000000000286056e+00 7.839856808517547506e+02
1.590000000000285629e+00 7.897589003851451253e+02
1.610000000000285203e+00 7.984814490296522536e+02
1.630000000000284777e+00 8.059749025955338766e+02
1.650000000000284350e+00 8.155905464097884305e+02
1.670000000000283924e+00 8.195895178582267135e+02
1.690000000000283498e+00 8.309202382870785186e+02
1.710000000000283071e+00 8.368524661417160360e+02
1.730000000000282645e+00 8.419129168668687271e+02
1.750000000000282219e+00 8.383443832249387242e+02
1.770000000000281792e+00 8.358402162032635943e+02
1.790000000000281366e+00 8.347761209001253064e+02
1.810000000000280940e+00 8.358647506343728537e+02
1.830000000000280513e+00 8.358671478905346248e+02
1.850000000000280087e+00 8.363270487907666393e+02
1.870000000000279661e+00 8.378538778860332741e+02
1.890000000000279234e+00 8.391463705503672372e+02
1.910000000000278808e+00 8.412430136956096476e+02
1.930000000000278382e+00 8.441984888056672389e+02
1.950000000000277955e+00 8.485924421424393813e+02
1.970000000000277529e+00 8.440347901799998453e+02
1.990000000000277103e+00 8.414616740822440306e+02
2.010000000000276899e+00 8.389504690245308893e+02
2.030000000000276472e+00 8.350420623203051491e+02
2.050000000000276046e+00 8.345392305325677853e+02
2.070000000000275620e+00 8.314489356789922567e+02
2.090000000000275193e+00 8.323720528818279263e+02
2.110000000000274767e+00 8.301810839104733759e+02
2.130000000000274341e+00 8.260416511192735243e+02
2.150000000000273914e+00 8.249048777854329728e+02
2.170000000000273488e+00 8.191532446858916501e+02
2.190000000000273062e+00 8.132185496653194150e+02
2.210000000000272635e+00 8.089473814057652135e+02
2.230000000000272209e+00 7.982010292335995700e+02
2.250000000000271783e+00 7.928296862785944086e+02
2.270000000000271356e+00 7.818365939003701897e+02
2.290000000000270930e+00 7.735695319581072908e+02
2.310000000000270504e+00 7.669421210507030082e+02
2.330000000000270077e+00 7.617885591087249395e+02
2.350000000000269651e+00 7.546847135423117834e+02
2.370000000000269225e+00 7.491471106238719813e+02
2.390000000000268798e+00 7.459272030442126606e+02
2.410000000000268372e+00 7.374188516151588146e+02
2.430000000000267946e+00 7.298169206194733079e+02
2.450000000000267519e+00 7.213950594259558784e+02
2.470000000000267093e+00 7.131023943999769017e+02
2.490000000000266667e+00 7.070906710348098159e+02
2.510000000000266240e+00 7.006084013276210953e+02
2.530000000000265814e+00 6.896812241552088381e+02
2.550000000000265388e+00 6.816168603451120589e+02
2.570000000000264961e+00 6.732326765852345716e+02
2.590000000000264535e+00 6.667988467863673350e+02
2.610000000000264109e+00 6.572683947944339025e+02
2.630000000000263682e+00 6.505816064507512237e+02
2.650000000000263256e+00 6.430124498522097838e+02
2.670000000000262830e+00 6.352906487324011096e+02
2.690000000000262403e+00 6.277743320181732543e+02
2.710000000000261977e+00 6.195768691278675533e+02
2.730000000000261551e+00 6.123232911769771363e+02
2.750000000000261124e+00 6.050697107114176561e+02
2.770000000000260698e+00 5.974018733331942030e+02
2.790000000000260272e+00 5.897767296049012202e+02
2.810000000000259845e+00 5.824918977901713788e+02
2.830000000000259419e+00 5.755032036502414030e+02
2.850000000000258993e+00 5.684068259556137264e+02
2.870000000000258567e+00 5.617258031889283529e+02
2.890000000000258140e+00 5.549546145284696195e+02
2.910000000000257714e+00 5.470905623373083699e+02
2.930000000000257288e+00 5.405466845432808896e+02
2.950000000000256861e+00 5.331835647149036959e+02
2.970000000000256435e+00 5.245958686870334304e+02
2.990000000000256009e+00 5.170442707458872746e+02
3.010000000000255582e+00 5.101363571131037133e+02
3.030000000000255156e+00 5.039583781406172989e+02
3.050000000000254730e+00 4.966430784736224382e+02
3.070000000000254303e+00 4.900287164033516660e+02
3.090000000000253877e+00 4.830095514986792296e+02
3.110000000000253451e+00 4.767372426281231697e+02
3.130000000000253024e+00 4.712772632065376115e+02
3.150000000000252598e+00 4.638032590846532344e+02
3.170000000000252172e+00 4.603761304177887155e+02
3.190000000000251745e+00 4.524092385929391185e+02
3.210000000000251319e+00 4.477420057338146648e+02
3.230000000000250893e+00 4.421492247305574779e+02
3.250000000000250466e+00 4.361344932362991358e+02
3.270000000000250040e+00 4.308166456889056235e+02
3.290000000000249614e+00 4.222639772792873032e+02
3.310000000000249187e+00 4.140594601136937172e+02
3.330000000000248761e+00 4.063470212503185053e+02
3.350000000000248335e+00 3.972997592140782217e+02
3.370000000000247908e+00 3.911485875089454680e+02
3.390000000000247482e+00 3.844093030829877762e+02
3.410000000000247056e+00 3.788240491800171412e+02
3.430000000000246629e+00 3.724643426482621749e+02
3.450000000000246203e+00 3.673743169197596785e+02
3.470000000000245777e+00 3.618036487706060598e+02
3.490000000000245350e+00 3.565574463426669354e+02
3.510000000000244924e+00 3.506851210438023259e+02
3.530000000000244498e+00 3.455932528451035068e+02
3.550000000000244071e+00 3.410421575666719605e+02
3.570000000000243645e+00 3.370923263275436170e+02
3.590000000000243219e+00 3.329434380617135503e+02
3.610000000000242792e+00 3.285405815077859870e+02
3.630000000000242366e+00 3.227402687002653465e+02
3.650000000000241940e+00 3.172928732372224658e+02
3.670000000000241513e+00 3.114835720747388450e+02
3.690000000000241087e+00 3.068656387512183983e+02
3.710000000000240661e+00 3.022741475753736040e+02
3.730000000000240234e+00 2.976828917632481648e+02
3.750000000000239808e+00 2.929646750224682705e+02
3.770000000000239382e+00 2.898489514962157045e+02
3.790000000000238956e+00 2.851227555904096675e+02
3.810000000000238529e+00 2.810959723251539799e+02
3.830000000000238103e+00 2.776276262607590297e+02
3.850000000000237677e+00 2.734704645382826129e+02
3.870000000000237250e+00 2.689070191530605030e+02
3.890000000000236824e+00 2.643798099097989507e+02
3.910000000000236398e+00 2.605331685394469901e+02
3.930000000000235971e+00 2.564406971459065403e+02
3.950000000000235545e+00 2.530579696583081386e+02
3.970000000000235119e+00 2.492943610598464375e+02
3.990000000000234692e+00 2.454171009234609926e+02
4.010000000000234266e+00 2.411091537204314079e+02
4.030000000000233840e+00 2.371368903638612267e+02
4.050000000000233413e+00 2.336877513306169476e+02
4.070000000000232987e+00 2.304022332386654739e+02
4.090000000000232561e+00 2.262502440532052219e+02
4.110000000000232134e+00 2.236540038899722447e+02
4.130000000000231708e+00 2.208477441182954522e+02
4.150000000000231282e+00 2.175521418864683767e+02
4.170000000000230855e+00 2.148620348300169383e+02
4.190000000000230429e+00 2.120563255064200519e+02
4.210000000000230003e+00 2.091181655999415909e+02
4.230000000000229576e+00 2.068314149876691488e+02
4.250000000000229150e+00 2.032531001621628945e+02
4.270000000000228724e+00 1.996141707944592838e+02
4.290000000000228297e+00 1.961134966273593818e+02
4.310000000000227871e+00 1.927930819435849230e+02
4.330000000000227445e+00 1.894586656333781889e+02
4.350000000000227018e+00 1.855609094595931197e+02
4.370000000000226592e+00 1.834490951489161432e+02
4.390000000000226166e+00 1.808019488803412855e+02
4.410000000000225739e+00 1.782215986853865104e+02
4.430000000000225313e+00 1.755867813888414162e+02
4.450000000000224887e+00 1.736313225726345308e+02
4.470000000000224460e+00 1.716630519787554476e+02
4.490000000000224034e+00 1.693408883846835238e+02
4.510000000000223608e+00 1.666389696097186004e+02
4.530000000000223181e+00 1.648124408296037871e+02
4.550000000000222755e+00 1.620205535620545163e+02
4.570000000000222329e+00 1.596518831540470558e+02
4.590000000000221902e+00 1.578026197478326935e+02
4.610000000000221476e+00 1.556483756494586430e+02
4.630000000000221050e+00 1.542999194513720340e+02
4.650000000000220624e+00 1.519654592314211641e+02
4.670000000000220197e+00 1.495301108296797281e+02
4.690000000000219771e+00 1.474654934623086149e+02
4.710000000000219345e+00 1.450470964055913043e+02
4.730000000000218918e+00 1.428865572066057155e+02
4.750000000000218492e+00 1.407437645318652812e+02
4.770000000000218066e+00 1.392396515044913485e+02
4.790000000000217639e+00 1.374567512629969599e+02
4.810000000000217213e+00 1.353252981129958812e+02
4.830000000000216787e+00 1.336617446838178580e+02
4.850000000000216360e+00 1.326222865631630157e+02
4.870000000000215934e+00 1.312466558382796791e+02
4.890000000000215508e+00 1.292614769928184444e+02
4.910000000000215081e+00 1.282024590193510676e+02
4.930000000000214655e+00 1.268231315170913263e+02
4.950000000000214229e+00 1.249775293938816105e+02
4.970000000000213802e+00 1.241606553451416488e+02
4.990000000000213376e+00 1.224450887933684982e+02
5.010000000000212950e+00 1.204766713693460218e+02
5.030000000000212523e+00 1.186185635365673789e+02
5.050000000000212097e+00 1.169050057999338605e+02
5.070000000000211671e+00 1.152632017031871072e+02
5.090000000000211244e+00 1.133610881198695637e+02
5.110000000000210818e+00 1.116390783571320640e+02
5.130000000000210392e+00 1.099206455379313923e+02
5.150000000000209965e+00 1.079667261853509501e+02
5.170000000000209539e+00 1.067401870193619544e+02
5.190000000000209113e+00 1.052171202896704187e+02
5.210000000000208686e+00 1.038190310172682587e+02
5.230000000000208260e+00 1.026018592354400738e+02
5.250000000000207834e+00 1.013217683190095784e+02
5.270000000000207407e+00 9.972538194287184865e+01
5.290000000000206981e+00 9.862076728618079358e+01
5.310000000000206555e+00 9.754277946895072660e+01
5.330000000000206128e+00 9.623148779705202571e+01
5.350000000000205702e+00 9.487006914816637959e+01
5.370000000000205276e+00 9.400007942908416680e+01
5.390000000000204849e+00 9.322496096935969945e+01
5.410000000000204423e+00 9.189558298018519622e+01
5.430000000000203997e+00 9.116673083258085342e+01
5.450000000000203570e+00 9.021528791046880258e+01
5.470000000000203144e+00 8.954811985146787379e+01
5.490000000000202718e+00 8.834402418311277927e+01
5.510000000000202292e+00 8.708874463332969640e+01
5.530000000000201865e+00 8.661064167116047940e+01
5.550000000000201439e+00 8.554298422039494199e+01
5.570000000000201013e+00 8.460027148784683959e+01
5.590000000000200586e+00 8.333491492463915051e+01
5.610000000000200160e+00 8.271850509106617721e+01
5.630000000000199734e+00 8.212105254100460172e+01
5.650000000000199307e+00 8.053726738144347053e+01
5.670000000000198881e+00 7.917342680821241174e+01
5.690000000000198455e+00 7.821604191274622053e+01
5.710000000000198028e+00 7.695381858086240356e+01
5.730000000000197602e+00 7.623900406088642967e+01
5.750000000000197176e+00 7.506254821759191032e+01
5.770000000000196749e+00 7.408259925888494024e+01
5.790000000000196323e+00 7.301287157253628379e+01
5.810000000000195897e+00 7.230062713960488452e+01
5.830000000000195470e+00 7.182415220763934371e+01
5.850000000000195044e+00 7.085358368615679581e+01
5.870000000000194618e+00 6.987783293023579745e+01
5.890000000000194191e+00 6.924550133400677510e+01
5.910000000000193765e+00 6.863198220156854745e+01
5.930000000000193339e+00 6.798892833297443872e+01
5.950000000000192912e+00 6.723166950743893722e+01
5.970000000000192486e+00 6.667817283403431361e+01
5.990000000000192060e+00 6.593276008375427466e+01
6.010000000000191633e+00 6.550526901430434634e+01
6.030000000000191207e+00 6.445007499927784522e+01
6.050000000000190781e+00 6.361506244177804348e+01
6.070000000000190354e+00 6.355999908899533324e+01
6.090000000000189928e+00 6.291517731476218955e+01
6.110000000000189502e+00 6.232074711395468114e+01
6.130000000000189075e+00 6.133483089360237273e+01
6.150000000000188649e+00 6.100287708086694494e+01
6.170000000000188223e+00 6.006743628835534565e+01
6.190000000000187796e+00 5.943326700926495221e+01
6.210000000000187370e+00 5.843212304397349044e+01
6.230000000000186944e+00 5.779581074490054249e+01
6.250000000000186517e+00 5.676198111062360852e+01
6.270000000000186091e+00 5.633732540781880971e+01
6.290000000000185665e+00 5.597540220487152141e+01
6.310000000000185238e+00 5.496579103742178773e+01
6.330000000000184812e+00 5.446483239379423935e+01
6.350000000000184386e+00 5.375134081096217642e+01
6.370000000000183960e+00 5.343550560026562124e+01
6.390000000000183533e+00 5.311812162829851047e+01
6.410000000000183107e+00 5.264973499968993309e+01
6.430000000000182681e+00 5.208223860076807910e+01
6.450000000000182254e+00 5.138114721880576496e+01
6.470000000000181828e+00 5.091937740211488972e+01
6.490000000000181402e+00 5.075378385155293159e+01
6.510000000000180975e+00 5.027463478389105944e+01
6.530000000000180549e+00 4.945045107119793215e+01
6.550000000000180123e+00 4.917636034038013548e+01
6.570000000000179696e+00 4.880768575759559980e+01
6.590000000000179270e+00 4.805414313229226053e+01
6.610000000000178844e+00 4.760487394859536181e+01
6.630000000000178417e+00 4.738074981000296759e+01
6.650000000000177991e+00 4.689569768153441487e+01
6.670000000000177565e+00 4.665844843912428530e+01
6.690000000000177138e+00 4.612841557001961235e+01
6.710000000000176712e+00 4.571121720394408783e+01
6.730000000000176286e+00 4.504879350085678169e+01
6.750000000000175859e+00 4.445508157941551985e+01
6.770000000000175433e+00 4.401436653181401937e+01
6.790000000000175007e+00 4.376143042253779214e+01
6.810000000000174580e+00 4.293543904353394680e+01
6.830000000000174154e+00 4.229833909092365474e+01
6.850000000000173728e+00 4.217939093254807403e+01
6.870000000000173301e+00 4.173266522539091739e+01
6.890000000000172875e+00 4.154584243171586877e+01
6.910000000000172449e+00 4.099390352257304926e+01
6.930000000000172022e+00 4.080368618422362914e+01
6.950000000000171596e+00 4.028029437611872510e+01
6.970000000000171170e+00 3.996169442405152239e+01
6.990000000000170743e+00 3.971552027693071096e+01
7.010000000000170317e+00 3.959659941678787476e+01
7.030000000000169891e+00 3.899615724820808538e+01
7.050000000000169464e+00 3.871073200740466547e+01
7.070000000000169038e+00 3.832956517749522618e+01
7.090000000000168612e+00 3.803944015735910256e+01
7.110000000000168185e+00 3.787517604571404206e+01
7.130000000000167759e+00 3.732372755032541534e+01
7.150000000000167333e+00 3.713876295065689703e+01
7.170000000000166906e+00 3.673330728245194621e+01
7.190000000000166480e+00 3.603957393397868714e+01
7.210000000000166054e+00 3.582644511877439442e+01
7.230000000000165628e+00 3.570448087463908138e+01
7.250000000000165201e+00 3.518500085961002810e+01
7.270000000000164775e+00 3.481806795943986543e+01
7.290000000000164349e+00 3.436309571180832734e+01
7.310000000000163922e+00 3.414438917893794212e+01
7.330000000000163496e+00 3.406266701613974845e+01
7.350000000000163070e+00 3.364351778283528915e+01
7.370000000000162643e+00 3.336881638732918987e+01
7.390000000000162217e+00 3.312818123811077697e+01
7.410000000000161791e+00 3.305468201737021872e+01
7.430000000000161364e+00 3.259250008074306493e+01
7.450000000000160938e+00 3.245793269346667387e+01
7.470000000000160512e+00 3.210999293873280891e+01
7.490000000000160085e+00 3.206857665722189665e+01
7.510000000000159659e+00 3.123946698724452276e+01
7.530000000000159233e+00 3.127536457226405986e+01
7.550000000000158806e+00 3.106937297343227655e+01
7.570000000000158380e+00 3.072069998881721631e+01
7.590000000000157954e+00 3.043590942206098404e+01
7.610000000000157527e+00 3.002934103599877247e+01
7.630000000000157101e+00 2.978376116910625626e+01
7.650000000000156675e+00 2.956082086006040655e+01
7.670000000000156248e+00 2.945706769451039619e+01
7.690000000000155822e+00 2.894227220912822673e+01
7.710000000000155396e+00 2.873992501369200880e+01
7.730000000000154969e+00 2.859414500785937463e+01
7.750000000000154543e+00 2.847240253536658017e+01
7.770000000000154117e+00 2.802640662437319463e+01
7.790000000000153690e+00 2.800145635843277958e+01
7.810000000000153264e+00 2.763260169725712956e+01
7.830000000000152838e+00 2.738705702710294787e+01
7.850000000000152411e+00 2.721447229675558432e+01
7.870000000000151985e+00 2.710170782349021223e+01
7.890000000000151559e+00 2.674666169803147042e+01
7.910000000000151132e+00 2.659873585177613720e+01
7.930000000000150706e+00 2.636778467194559994e+01
7.950000000000150280e+00 2.612830177444675073e+01
7.970000000000149853e+00 2.579958598880147846e+01
