# Redshift		Merger Rate Density [Gpc^-3yr^-1]
1.000000000031931770e-02 1.817407037488315424e+01
3.000000000031888964e-02 1.898602856040955444e+01
5.000000000031846331e-02 1.980512193941215315e+01
7.000000000031804392e-02 2.054874663022733827e+01
9.000000000031761760e-02 2.147621807177285547e+01
1.100000000003171913e-01 2.235197359580505250e+01
1.300000000003167511e-01 2.322183309022429398e+01
1.500000000003163247e-01 2.428996543266346464e+01
1.700000000003158984e-01 2.518306503212793501e+01
1.900000000003154721e-01 2.637803395334541179e+01
2.100000000003150458e-01 2.734487408463406055e+01
2.300000000003146194e-01 2.855978709975349261e+01
2.500000000003141931e-01 2.962884244458858873e+01
2.700000000003137668e-01 3.081392577316702841e+01
2.900000000003133405e-01 3.183907074890029065e+01
3.100000000003129141e-01 3.310410322804983707e+01
3.300000000003124878e-01 3.434196931444808598e+01
3.500000000003120615e-01 3.548491681751738014e+01
3.700000000003116352e-01 3.685736331355226980e+01
3.900000000003112088e-01 3.795754471174305422e+01
4.100000000003107825e-01 3.914961664032001920e+01
4.300000000003103562e-01 4.068325957220606170e+01
4.500000000003099299e-01 4.200357019413626602e+01
4.700000000003095035e-01 4.332257476781807526e+01
4.900000000003090772e-01 4.458270306192638799e+01
5.100000000003086509e-01 4.617124117318834919e+01
5.300000000003082246e-01 4.757388674706933074e+01
5.500000000003077982e-01 4.883268575006377432e+01
5.700000000003073719e-01 5.043375926744916882e+01
5.900000000003069456e-01 5.172961367511047825e+01
6.100000000003065193e-01 5.310519289020429312e+01
6.300000000003060929e-01 5.473716753928153622e+01
6.500000000003056666e-01 5.610082657525654781e+01
6.700000000003052403e-01 5.778950653900014345e+01
6.900000000003048140e-01 5.922523329300459238e+01
7.100000000003043876e-01 6.083667889035877607e+01
7.300000000003039613e-01 6.246628523523641263e+01
7.500000000003035350e-01 6.413708853896660855e+01
7.700000000003031086e-01 6.585417812579649421e+01
7.900000000003026823e-01 6.717175032557268821e+01
8.100000000003022560e-01 6.894246775554459816e+01
8.300000000003018297e-01 7.037207539859404903e+01
8.500000000003014033e-01 7.227378922934276773e+01
8.700000000003009770e-01 7.359831797642775086e+01
8.900000000003005507e-01 7.549810801215657818e+01
9.100000000003001244e-01 7.719597208426111479e+01
9.300000000002996980e-01 7.869397069804146838e+01
9.500000000002992717e-01 8.071855337537556352e+01
9.700000000002988454e-01 8.226353485797858411e+01
9.900000000002984191e-01 8.383120074529389854e+01
1.010000000000297993e+00 8.557321015137181064e+01
1.030000000000297566e+00 8.739134466195100970e+01
1.050000000000297140e+00 8.897049788978172558e+01
1.070000000000296714e+00 9.064999200862217776e+01
1.090000000000296287e+00 9.222172539916410017e+01
1.110000000000295861e+00 9.361997099956997204e+01
1.130000000000295435e+00 9.560393508192554179e+01
1.150000000000295008e+00 9.737822412129921190e+01
1.170000000000294582e+00 9.925321858793127205e+01
1.190000000000294156e+00 1.005742023086318824e+02
1.210000000000293729e+00 1.021022950681984867e+02
1.230000000000293303e+00 1.041276199327071197e+02
1.250000000000292877e+00 1.053293746354052161e+02
1.270000000000292451e+00 1.072043748285781675e+02
1.290000000000292024e+00 1.083199451173126988e+02
1.310000000000291598e+00 1.097912323646878718e+02
1.330000000000291172e+00 1.113226988606408696e+02
1.350000000000290745e+00 1.127716454125790477e+02
1.370000000000290319e+00 1.142089452355055954e+02
1.390000000000289893e+00 1.159693729083771245e+02
1.410000000000289466e+00 1.170537836924043660e+02
1.430000000000289040e+00 1.178921180091683851e+02
1.450000000000288614e+00 1.202598719782338037e+02
1.470000000000288187e+00 1.211550595060280813e+02
1.490000000000287761e+00 1.221317675629119464e+02
1.510000000000287335e+00 1.226995366080837329e+02
1.530000000000286908e+00 1.244399918953784834e+02
1.550000000000286482e+00 1.251317828403425381e+02
1.570000000000286056e+00 1.263395881497987432e+02
1.590000000000285629e+00 1.265646660016441416e+02
1.610000000000285203e+00 1.281688025243790321e+02
1.630000000000284777e+00 1.284409765230890343e+02
1.650000000000284350e+00 1.291054857661694371e+02
1.670000000000283924e+00 1.305859556745641328e+02
1.690000000000283498e+00 1.319173775519478511e+02
1.710000000000283071e+00 1.332090398940318039e+02
1.730000000000282645e+00 1.325302503111650481e+02
1.750000000000282219e+00 1.328784499298506603e+02
1.770000000000281792e+00 1.332339177984253240e+02
1.790000000000281366e+00 1.345428428123026663e+02
1.810000000000280940e+00 1.349981568161594794e+02
1.830000000000280513e+00 1.340936276855852896e+02
1.850000000000280087e+00 1.348006812381378836e+02
1.870000000000279661e+00 1.356337666778329378e+02
1.890000000000279234e+00 1.349334293052741884e+02
1.910000000000278808e+00 1.342054224704413343e+02
1.930000000000278382e+00 1.342110300228566757e+02
1.950000000000277955e+00 1.332326359542263674e+02
1.970000000000277529e+00 1.335050567555251746e+02
1.990000000000277103e+00 1.329636883306310438e+02
2.010000000000276899e+00 1.325375012309987142e+02
2.030000000000276472e+00 1.324897552758919801e+02
2.050000000000276046e+00 1.318701910351155675e+02
2.070000000000275620e+00 1.309157716511613785e+02
2.090000000000275193e+00 1.311415242600824911e+02
2.110000000000274767e+00 1.300877509332579791e+02
2.130000000000274341e+00 1.289733546406763196e+02
2.150000000000273914e+00 1.283260603769572299e+02
2.170000000000273488e+00 1.277683869542025832e+02
2.190000000000273062e+00 1.269782573859076251e+02
2.210000000000272635e+00 1.259867305912750766e+02
2.230000000000272209e+00 1.254967201524754046e+02
2.250000000000271783e+00 1.242815897741813274e+02
2.270000000000271356e+00 1.235388230817063544e+02
2.290000000000270930e+00 1.229537063827901733e+02
2.310000000000270504e+00 1.219435816594758535e+02
2.330000000000270077e+00 1.208952604057490987e+02
2.350000000000269651e+00 1.197985573678251967e+02
2.370000000000269225e+00 1.181283562146172130e+02
2.390000000000268798e+00 1.173248514153630424e+02
2.410000000000268372e+00 1.175853774226214767e+02
2.430000000000267946e+00 1.152197434914188818e+02
2.450000000000267519e+00 1.141854738018754318e+02
2.470000000000267093e+00 1.128810536022247391e+02
2.490000000000266667e+00 1.119452949538145532e+02
2.510000000000266240e+00 1.117485847772988592e+02
2.530000000000265814e+00 1.101747446763857425e+02
2.550000000000265388e+00 1.089012090949991602e+02
2.570000000000264961e+00 1.076584955849415053e+02
2.590000000000264535e+00 1.071917150600105515e+02
2.610000000000264109e+00 1.054817838537182837e+02
2.630000000000263682e+00 1.033381055717516546e+02
2.650000000000263256e+00 1.029863879846412260e+02
2.670000000000262830e+00 1.017991143248677020e+02
2.690000000000262403e+00 1.002401760177210406e+02
2.710000000000261977e+00 9.838022976315272672e+01
2.730000000000261551e+00 9.711555034593865798e+01
2.750000000000261124e+00 9.621105677220863583e+01
2.770000000000260698e+00 9.491209731407352024e+01
2.790000000000260272e+00 9.325290777506855022e+01
2.810000000000259845e+00 9.210742394892179163e+01
2.830000000000259419e+00 9.062404328892569083e+01
2.850000000000258993e+00 8.926218598636148727e+01
2.870000000000258567e+00 8.854677929499342781e+01
2.890000000000258140e+00 8.694823786460571569e+01
2.910000000000257714e+00 8.585331149181965316e+01
2.930000000000257288e+00 8.486089648912687267e+01
2.950000000000256861e+00 8.318258134556826633e+01
2.970000000000256435e+00 8.229529850847454497e+01
2.990000000000256009e+00 8.119905572914753122e+01
3.010000000000255582e+00 8.023168684377984050e+01
3.030000000000255156e+00 7.913659682719888622e+01
3.050000000000254730e+00 7.816949370894207050e+01
3.070000000000254303e+00 7.650869065389927925e+01
3.090000000000253877e+00 7.576872746370712264e+01
3.110000000000253451e+00 7.426379748591553209e+01
3.130000000000253024e+00 7.352930665776709418e+01
3.150000000000252598e+00 7.234566503199370402e+01
3.170000000000252172e+00 7.114351973639267612e+01
3.190000000000251745e+00 7.036203218475247922e+01
3.210000000000251319e+00 6.954303626274854366e+01
3.230000000000250893e+00 6.935769971199357542e+01
3.250000000000250466e+00 6.827977226711348635e+01
3.270000000000250040e+00 6.751389626474494321e+01
3.290000000000249614e+00 6.585748827669540617e+01
3.310000000000249187e+00 6.447897622008005669e+01
3.330000000000248761e+00 6.391315878073036316e+01
3.350000000000248335e+00 6.253334798407596651e+01
3.370000000000247908e+00 6.220015640020919534e+01
3.390000000000247482e+00 6.108153455953011957e+01
3.410000000000247056e+00 6.020135395627591635e+01
3.430000000000246629e+00 5.955441518294146164e+01
3.450000000000246203e+00 5.819578659391194009e+01
3.470000000000245777e+00 5.721809916950584096e+01
3.490000000000245350e+00 5.646331759591411981e+01
3.510000000000244924e+00 5.571260203813997691e+01
3.530000000000244498e+00 5.442661550800186632e+01
3.550000000000244071e+00 5.395990872894123669e+01
3.570000000000243645e+00 5.278857843453557308e+01
3.590000000000243219e+00 5.205559369818661253e+01
3.610000000000242792e+00 5.160968938334520573e+01
3.630000000000242366e+00 5.080255197681952950e+01
3.650000000000241940e+00 4.994637265735985920e+01
3.670000000000241513e+00 4.925651720442002812e+01
3.690000000000241087e+00 4.830419803209518648e+01
3.710000000000240661e+00 4.789398045904388823e+01
3.730000000000240234e+00 4.679361626562995014e+01
3.750000000000239808e+00 4.641954851246386227e+01
3.770000000000239382e+00 4.547776922820073509e+01
3.790000000000238956e+00 4.502414997909482963e+01
3.810000000000238529e+00 4.413910944270007519e+01
3.830000000000238103e+00 4.364639047637477631e+01
3.850000000000237677e+00 4.281969625654552658e+01
3.870000000000237250e+00 4.206252964590373722e+01
3.890000000000236824e+00 4.159404828995003811e+01
3.910000000000236398e+00 4.082249787689433163e+01
3.930000000000235971e+00 4.042701509690684958e+01
3.950000000000235545e+00 3.989419808525775579e+01
3.970000000000235119e+00 3.925976515110150444e+01
3.990000000000234692e+00 3.875258369850948270e+01
4.010000000000234266e+00 3.808465488019920997e+01
4.030000000000233840e+00 3.759472005840889608e+01
4.050000000000233413e+00 3.678869550512483499e+01
4.070000000000232987e+00 3.667690436652365094e+01
4.090000000000232561e+00 3.601458338429348771e+01
4.110000000000232134e+00 3.579244638767202247e+01
4.130000000000231708e+00 3.498934324843909138e+01
4.150000000000231282e+00 3.435203245901930558e+01
4.170000000000230855e+00 3.425754109323658980e+01
4.190000000000230429e+00 3.372564592971054509e+01
4.210000000000230003e+00 3.390869600167443565e+01
4.230000000000229576e+00 3.322133119670111512e+01
4.250000000000229150e+00 3.236828435750742017e+01
4.270000000000228724e+00 3.189156658309733317e+01
4.290000000000228297e+00 3.115476602515126103e+01
4.310000000000227871e+00 3.093848271284166884e+01
4.330000000000227445e+00 3.045879674796909953e+01
4.350000000000227018e+00 3.009749490569330632e+01
4.370000000000226592e+00 2.975424277371326909e+01
4.390000000000226166e+00 2.923596305471372503e+01
4.410000000000225739e+00 2.881754912136257829e+01
4.430000000000225313e+00 2.879676896677006681e+01
4.450000000000224887e+00 2.839668029370970004e+01
4.470000000000224460e+00 2.780890441781706102e+01
4.490000000000224034e+00 2.729778842031143427e+01
4.510000000000223608e+00 2.680907519719336207e+01
4.530000000000223181e+00 2.665598977060475505e+01
4.550000000000222755e+00 2.607068775608940214e+01
4.570000000000222329e+00 2.558843922857744602e+01
4.590000000000221902e+00 2.538514216963823955e+01
4.610000000000221476e+00 2.498291789606275870e+01
4.630000000000221050e+00 2.465531934179589513e+01
4.650000000000220624e+00 2.450607197975962492e+01
4.670000000000220197e+00 2.402547857395151354e+01
4.690000000000219771e+00 2.369603704093077923e+01
4.710000000000219345e+00 2.341630460028558858e+01
4.730000000000218918e+00 2.295226962877352150e+01
4.750000000000218492e+00 2.280902069665111398e+01
4.770000000000218066e+00 2.240830750426183471e+01
4.790000000000217639e+00 2.207215015488688437e+01
4.810000000000217213e+00 2.184481136694738623e+01
4.830000000000216787e+00 2.149713948165019062e+01
4.850000000000216360e+00 2.123188727983110979e+01
4.870000000000215934e+00 2.075755413311017605e+01
4.890000000000215508e+00 2.054687593431114934e+01
4.910000000000215081e+00 2.051541922498392267e+01
4.930000000000214655e+00 2.034361587347728673e+01
4.950000000000214229e+00 2.016344204048129285e+01
4.970000000000213802e+00 1.991706039220665758e+01
4.990000000000213376e+00 1.952691166251427646e+01
5.010000000000212950e+00 1.937215479668076412e+01
5.030000000000212523e+00 1.903908999580749750e+01
5.050000000000212097e+00 1.847945750345503058e+01
5.070000000000211671e+00 1.824436028718924163e+01
5.090000000000211244e+00 1.800973332386221060e+01
5.110000000000210818e+00 1.778108744331622759e+01
5.130000000000210392e+00 1.759716080926918735e+01
5.150000000000209965e+00 1.734534182551739079e+01
5.170000000000209539e+00 1.702847672884762531e+01
5.190000000000209113e+00 1.698208702172359352e+01
5.210000000000208686e+00 1.692632231367058537e+01
5.230000000000208260e+00 1.659315584450942183e+01
5.250000000000207834e+00 1.635031555468459175e+01
5.270000000000207407e+00 1.612360033330323006e+01
5.290000000000206981e+00 1.577799983716733045e+01
5.310000000000206555e+00 1.557346489933271094e+01
5.330000000000206128e+00 1.543968200121949153e+01
5.350000000000205702e+00 1.513136185639260667e+01
5.370000000000205276e+00 1.484446004744175518e+01
5.390000000000204849e+00 1.471459583368631208e+01
5.410000000000204423e+00 1.463931272025746466e+01
5.430000000000203997e+00 1.429443263343238080e+01
5.450000000000203570e+00 1.426997843497506935e+01
5.470000000000203144e+00 1.405230267711976566e+01
5.490000000000202718e+00 1.375459328223227295e+01
5.510000000000202292e+00 1.357353137666881082e+01
5.530000000000201865e+00 1.353458744734326480e+01
5.550000000000201439e+00 1.342660809833444446e+01
5.570000000000201013e+00 1.324312916232692139e+01
5.590000000000200586e+00 1.325906343251283914e+01
5.610000000000200160e+00 1.311951609482963832e+01
5.630000000000199734e+00 1.272654882419546851e+01
5.650000000000199307e+00 1.256878759358181696e+01
5.670000000000198881e+00 1.227498732078217536e+01
5.690000000000198455e+00 1.203943204955829138e+01
5.710000000000198028e+00 1.191649384190300509e+01
5.730000000000197602e+00 1.175580769770789225e+01
5.750000000000197176e+00 1.158762995522791606e+01
5.770000000000196749e+00 1.144210560972667601e+01
5.790000000000196323e+00 1.124040689499946311e+01
5.810000000000195897e+00 1.109348489987459807e+01
5.830000000000195470e+00 1.098075301413308402e+01
5.850000000000195044e+00 1.110047883529172985e+01
5.870000000000194618e+00 1.089041341140353580e+01
5.890000000000194191e+00 1.077777310234184860e+01
5.910000000000193765e+00 1.035537304187926111e+01
5.930000000000193339e+00 1.013218124179968171e+01
5.950000000000192912e+00 1.023608332576725388e+01
5.970000000000192486e+00 9.951319941007760406e+00
5.990000000000192060e+00 9.889048803639070684e+00
6.010000000000191633e+00 9.583505511367187424e+00
6.030000000000191207e+00 9.535667618142522173e+00
6.050000000000190781e+00 9.426159840931912726e+00
6.070000000000190354e+00 9.362963823074556657e+00
6.090000000000189928e+00 9.216909435090972380e+00
6.110000000000189502e+00 9.031750022785972831e+00
6.130000000000189075e+00 9.055753793378491068e+00
6.150000000000188649e+00 9.043788423235644913e+00
6.170000000000188223e+00 8.911440823963415525e+00
6.190000000000187796e+00 8.638039213694886698e+00
6.210000000000187370e+00 8.681875136714619856e+00
6.230000000000186944e+00 8.368130829867324039e+00
6.250000000000186517e+00 8.271560637254033566e+00
6.270000000000186091e+00 8.101146821307576573e+00
6.290000000000185665e+00 8.038010387632809284e+00
6.310000000000185238e+00 7.966603745106722201e+00
6.330000000000184812e+00 7.772705552897103409e+00
6.350000000000184386e+00 7.829894529784860779e+00
6.370000000000183960e+00 7.544881856942566856e+00
6.390000000000183533e+00 7.464981598439477395e+00
6.410000000000183107e+00 7.515326588142901443e+00
6.430000000000182681e+00 7.453200084166004658e+00
6.450000000000182254e+00 7.254304421212415477e+00
6.470000000000181828e+00 7.216319630776940386e+00
6.490000000000181402e+00 6.955923677530242877e+00
6.510000000000180975e+00 6.827195703408391658e+00
6.530000000000180549e+00 6.712785909093633485e+00
6.550000000000180123e+00 6.670860812518633942e+00
6.570000000000179696e+00 6.593342717624573801e+00
6.590000000000179270e+00 6.494076882443283516e+00
6.610000000000178844e+00 6.442830823214272584e+00
6.630000000000178417e+00 6.423958969409102160e+00
6.650000000000177991e+00 6.337690830466307546e+00
6.670000000000177565e+00 6.332802001187215701e+00
6.690000000000177138e+00 6.068922592586737608e+00
6.710000000000176712e+00 6.001831202751686689e+00
6.730000000000176286e+00 5.940909261072000014e+00
6.750000000000175859e+00 5.813223679545650668e+00
6.770000000000175433e+00 5.722589532119306988e+00
6.790000000000175007e+00 5.633321888839834202e+00
6.810000000000174580e+00 5.578940712944729263e+00
6.830000000000174154e+00 5.427690296777226919e+00
6.850000000000173728e+00 5.441956181920941660e+00
6.870000000000173301e+00 5.331390710729286830e+00
6.890000000000172875e+00 5.283018574259958022e+00
6.910000000000172449e+00 5.244541545656267623e+00
6.930000000000172022e+00 5.277913854895651902e+00
6.950000000000171596e+00 5.221061939691095333e+00
6.970000000000171170e+00 5.042934617811161147e+00
6.990000000000170743e+00 5.003083476246608541e+00
7.010000000000170317e+00 4.922889766891380248e+00
7.030000000000169891e+00 4.838235479609615197e+00
7.050000000000169464e+00 4.715780562848935986e+00
7.070000000000169038e+00 4.705177916244166703e+00
7.090000000000168612e+00 4.685180050545265651e+00
7.110000000000168185e+00 4.551242881648865257e+00
7.130000000000167759e+00 4.529537054456381107e+00
7.150000000000167333e+00 4.416172342896333980e+00
7.170000000000166906e+00 4.371836914310629929e+00
7.190000000000166480e+00 4.228918731861357472e+00
7.210000000000166054e+00 4.209555739265626428e+00
7.230000000000165628e+00 4.137179241413749153e+00
7.250000000000165201e+00 4.122617930540667608e+00
7.270000000000164775e+00 4.047493869533187016e+00
7.290000000000164349e+00 3.967172346820795337e+00
7.310000000000163922e+00 3.977297107019295286e+00
7.330000000000163496e+00 3.884147295562645041e+00
7.350000000000163070e+00 3.855735363325416554e+00
7.370000000000162643e+00 3.821258468323180946e+00
7.390000000000162217e+00 3.847110509303155013e+00
7.410000000000161791e+00 3.821505155525504183e+00
7.430000000000161364e+00 3.745548265241726682e+00
7.450000000000160938e+00 3.628225283226952591e+00
7.470000000000160512e+00 3.568602225000336414e+00
7.490000000000160085e+00 3.574551978469951763e+00
7.510000000000159659e+00 3.514724815119724344e+00
7.530000000000159233e+00 3.440870261646117978e+00
7.550000000000158806e+00 3.410866014629823084e+00
7.570000000000158380e+00 3.389912067796846173e+00
7.590000000000157954e+00 3.260031373939199284e+00
7.610000000000157527e+00 3.232573489783012288e+00
7.630000000000157101e+00 3.208311675907342675e+00
7.650000000000156675e+00 3.150722651454898493e+00
7.670000000000156248e+00 3.115722672513037139e+00
7.690000000000155822e+00 3.095462041202955650e+00
7.710000000000155396e+00 3.037639023340970024e+00
7.730000000000154969e+00 3.037311654111852111e+00
7.750000000000154543e+00 2.947631454334760814e+00
7.770000000000154117e+00 2.975597863456829639e+00
7.790000000000153690e+00 2.894691316826614180e+00
7.810000000000153264e+00 2.947122686732186914e+00
7.830000000000152838e+00 2.954055219550872469e+00
7.850000000000152411e+00 2.871091959523251802e+00
7.870000000000151985e+00 2.801945516403839154e+00
7.890000000000151559e+00 2.759757564322431467e+00
7.910000000000151132e+00 2.746525996612650289e+00
7.930000000000150706e+00 2.709379431195830357e+00
7.950000000000150280e+00 2.683747394428202426e+00
7.970000000000149853e+00 2.602616290778131614e+00
