# Redshift		Merger Rate Density [Gpc^-3yr^-1]
1.000000000031931770e-02 9.851225330648233580e+01
3.000000000031888964e-02 1.036578162871628450e+02
5.000000000031846331e-02 1.078055494130736633e+02
7.000000000031804392e-02 1.132066770125631621e+02
9.000000000031761760e-02 1.188368911939111854e+02
1.100000000003171913e-01 1.233505736893408624e+02
1.300000000003167511e-01 1.280660337947160770e+02
1.500000000003163247e-01 1.338089241012879711e+02
1.700000000003158984e-01 1.389061558524989550e+02
1.900000000003154721e-01 1.448247494110649143e+02
2.100000000003150458e-01 1.510588424667275262e+02
2.300000000003146194e-01 1.557925946610356220e+02
2.500000000003141931e-01 1.612586616504158883e+02
2.700000000003137668e-01 1.664605146960089996e+02
2.900000000003133405e-01 1.734306697809152524e+02
3.100000000003129141e-01 1.792205072387561984e+02
3.300000000003124878e-01 1.863697776058458828e+02
3.500000000003120615e-01 1.912190416912603439e+02
3.700000000003116352e-01 1.989300268642095091e+02
3.900000000003112088e-01 2.049579592367397254e+02
4.100000000003107825e-01 2.108731001874473634e+02
4.300000000003103562e-01 2.190572074801156361e+02
4.500000000003099299e-01 2.241210221350865481e+02
4.700000000003095035e-01 2.326110227831948976e+02
4.900000000003090772e-01 2.389596828838990916e+02
5.100000000003086509e-01 2.463296150243156148e+02
5.300000000003082246e-01 2.534535769064076760e+02
5.500000000003077982e-01 2.611189020418127598e+02
5.700000000003073719e-01 2.679301344354267371e+02
5.900000000003069456e-01 2.759337335038736683e+02
6.100000000003065193e-01 2.817653657208788331e+02
6.300000000003060929e-01 2.904046417371590678e+02
6.500000000003056666e-01 2.976256471618680166e+02
6.700000000003052403e-01 3.064932302661674726e+02
6.900000000003048140e-01 3.128407466680448010e+02
7.100000000003043876e-01 3.205201252172479940e+02
7.300000000003039613e-01 3.281804015177798988e+02
7.500000000003035350e-01 3.364831020850566006e+02
7.700000000003031086e-01 3.421196585479925147e+02
7.900000000003026823e-01 3.519772315359655863e+02
8.100000000003022560e-01 3.591359934751563401e+02
8.300000000003018297e-01 3.678749841366431497e+02
8.500000000003014033e-01 3.743561486235298048e+02
8.700000000003009770e-01 3.806198788721843016e+02
8.900000000003005507e-01 3.908906904525413211e+02
9.100000000003001244e-01 3.979782460133840800e+02
9.300000000002996980e-01 4.068993551743140529e+02
9.500000000002992717e-01 4.120219865057797506e+02
9.700000000002988454e-01 4.235469130340489983e+02
9.900000000002984191e-01 4.285907214653927895e+02
1.010000000000297993e+00 4.374882352332183473e+02
1.030000000000297566e+00 4.435325383646534760e+02
1.050000000000297140e+00 4.526079943296170427e+02
1.070000000000296714e+00 4.581283239630812432e+02
1.090000000000296287e+00 4.678297983191785079e+02
1.110000000000295861e+00 4.756788907661119765e+02
1.130000000000295435e+00 4.826497374355116676e+02
1.150000000000295008e+00 4.899361574534880219e+02
1.170000000000294582e+00 4.938919725448274107e+02
1.190000000000294156e+00 5.033217305089364118e+02
1.210000000000293729e+00 5.112519220907506678e+02
1.230000000000293303e+00 5.178443352361962297e+02
1.250000000000292877e+00 5.243051158993415584e+02
1.270000000000292451e+00 5.308265055957919003e+02
1.290000000000292024e+00 5.355099716641261693e+02
1.310000000000291598e+00 5.434431843044613970e+02
1.330000000000291172e+00 5.482434784011940110e+02
1.350000000000290745e+00 5.562036969393102481e+02
1.370000000000290319e+00 5.610124789212973155e+02
1.390000000000289893e+00 5.656893811840386661e+02
1.410000000000289466e+00 5.728359231868444112e+02
1.430000000000289040e+00 5.753432655713131680e+02
1.450000000000288614e+00 5.827613969113303938e+02
1.470000000000288187e+00 5.857431897233717564e+02
1.490000000000287761e+00 5.931699055976627051e+02
1.510000000000287335e+00 5.949075970600157461e+02
1.530000000000286908e+00 6.014838147536706856e+02
1.550000000000286482e+00 6.051412085612550982e+02
1.570000000000286056e+00 6.075754644280158345e+02
1.590000000000285629e+00 6.136869146641787438e+02
1.610000000000285203e+00 6.176798639885656712e+02
1.630000000000284777e+00 6.240270401609063811e+02
1.650000000000284350e+00 6.256681775621995030e+02
1.670000000000283924e+00 6.310100822328911363e+02
1.690000000000283498e+00 6.314386410439993824e+02
1.710000000000283071e+00 6.351002065876615461e+02
1.730000000000282645e+00 6.369090564103703400e+02
1.750000000000282219e+00 6.441535845701191647e+02
1.770000000000281792e+00 6.463588423508543883e+02
1.790000000000281366e+00 6.434795990361682243e+02
1.810000000000280940e+00 6.417613782298773231e+02
1.830000000000280513e+00 6.427199496096267239e+02
1.850000000000280087e+00 6.410538400647503749e+02
1.870000000000279661e+00 6.423593280151339968e+02
1.890000000000279234e+00 6.385087717303803174e+02
1.910000000000278808e+00 6.351965137862925985e+02
1.930000000000278382e+00 6.319660446872759394e+02
1.950000000000277955e+00 6.319506713151515669e+02
1.970000000000277529e+00 6.256367805962432840e+02
1.990000000000277103e+00 6.217049575546611777e+02
2.010000000000276899e+00 6.179584498007770890e+02
2.030000000000276472e+00 6.165073716609894063e+02
2.050000000000276046e+00 6.125349401319792833e+02
2.070000000000275620e+00 6.081812274673841330e+02
2.090000000000275193e+00 6.035612939120694591e+02
2.110000000000274767e+00 6.025323207929824321e+02
2.130000000000274341e+00 5.976565859000435239e+02
2.150000000000273914e+00 5.927471876030740532e+02
2.170000000000273488e+00 5.911460067281797137e+02
2.190000000000273062e+00 5.874113757878122897e+02
2.210000000000272635e+00 5.835702018132406010e+02
2.230000000000272209e+00 5.808680240848954099e+02
2.250000000000271783e+00 5.771640817683602336e+02
2.270000000000271356e+00 5.702562976693660630e+02
2.290000000000270930e+00 5.686636312813586756e+02
2.310000000000270504e+00 5.616060630277693235e+02
2.330000000000270077e+00 5.554930571249238938e+02
2.350000000000269651e+00 5.502503744513390984e+02
2.370000000000269225e+00 5.447967466046953859e+02
2.390000000000268798e+00 5.383674459599741340e+02
2.410000000000268372e+00 5.328161745746333509e+02
2.430000000000267946e+00 5.258104636391791473e+02
2.450000000000267519e+00 5.207567060681041085e+02
2.470000000000267093e+00 5.138671549407154089e+02
2.490000000000266667e+00 5.099174127189293131e+02
2.510000000000266240e+00 5.050763644588057559e+02
2.530000000000265814e+00 4.971131443820073059e+02
2.550000000000265388e+00 4.912394681795374822e+02
2.570000000000264961e+00 4.872378088480381848e+02
2.590000000000264535e+00 4.803555423650257694e+02
2.610000000000264109e+00 4.751314274349511493e+02
2.630000000000263682e+00 4.693209457962995543e+02
2.650000000000263256e+00 4.641754807006386727e+02
2.670000000000262830e+00 4.590002017484208636e+02
2.690000000000262403e+00 4.528117781106589632e+02
2.710000000000261977e+00 4.469255221646426435e+02
2.730000000000261551e+00 4.414866939342549017e+02
2.750000000000261124e+00 4.370681396973517394e+02
2.770000000000260698e+00 4.306799500871666737e+02
2.790000000000260272e+00 4.249415493526444720e+02
2.810000000000259845e+00 4.196491774347546766e+02
2.830000000000259419e+00 4.146468040539638196e+02
2.850000000000258993e+00 4.086063894912866772e+02
2.870000000000258567e+00 4.034960807402856631e+02
2.890000000000258140e+00 3.990264043881159637e+02
2.910000000000257714e+00 3.929920723960660780e+02
2.930000000000257288e+00 3.883518672222183454e+02
2.950000000000256861e+00 3.841106452746584523e+02
2.970000000000256435e+00 3.791962669797219974e+02
2.990000000000256009e+00 3.727907850343607379e+02
3.010000000000255582e+00 3.679576869625240647e+02
3.030000000000255156e+00 3.635354209332188020e+02
3.050000000000254730e+00 3.601365792029166641e+02
3.070000000000254303e+00 3.532177498001067306e+02
3.090000000000253877e+00 3.496408297650977488e+02
3.110000000000253451e+00 3.463734732897460162e+02
3.130000000000253024e+00 3.417316098948205081e+02
3.150000000000252598e+00 3.373488583204589304e+02
3.170000000000252172e+00 3.339134830750617766e+02
3.190000000000251745e+00 3.286522123906372030e+02
3.210000000000251319e+00 3.239635726803311400e+02
3.230000000000250893e+00 3.182740660627537181e+02
3.250000000000250466e+00 3.147544704923730023e+02
3.270000000000250040e+00 3.100780943309478062e+02
3.290000000000249614e+00 3.057431229510642652e+02
3.310000000000249187e+00 3.021477492665479758e+02
3.330000000000248761e+00 2.991191987759331710e+02
3.350000000000248335e+00 2.940823017309813281e+02
3.370000000000247908e+00 2.889965207212555924e+02
3.390000000000247482e+00 2.836947856787038518e+02
3.410000000000247056e+00 2.783817168831272966e+02
3.430000000000246629e+00 2.747834375694835103e+02
3.450000000000246203e+00 2.705979621262402475e+02
3.470000000000245777e+00 2.680476445342856096e+02
3.490000000000245350e+00 2.636334314376139787e+02
3.510000000000244924e+00 2.602756158970105957e+02
3.530000000000244498e+00 2.557488771157500196e+02
3.550000000000244071e+00 2.511852612920387742e+02
3.570000000000243645e+00 2.477776613983571679e+02
3.590000000000243219e+00 2.436337689846250498e+02
3.610000000000242792e+00 2.398717412228981516e+02
3.630000000000242366e+00 2.368385174748091799e+02
3.650000000000241940e+00 2.328924819741732790e+02
3.670000000000241513e+00 2.288999253310924473e+02
3.690000000000241087e+00 2.247429720798441224e+02
3.710000000000240661e+00 2.223477275663421722e+02
3.730000000000240234e+00 2.188826892256338397e+02
3.750000000000239808e+00 2.154289830065992817e+02
3.770000000000239382e+00 2.120251560590054396e+02
3.790000000000238956e+00 2.092641573868549756e+02
3.810000000000238529e+00 2.065744057790146258e+02
3.830000000000238103e+00 2.039104660142503462e+02
3.850000000000237677e+00 2.015033963409570390e+02
3.870000000000237250e+00 1.982178727400758760e+02
3.890000000000236824e+00 1.957058741716900272e+02
3.910000000000236398e+00 1.929864261761873934e+02
3.930000000000235971e+00 1.898910158986142278e+02
3.950000000000235545e+00 1.878546193886867286e+02
3.970000000000235119e+00 1.857076371244018844e+02
3.990000000000234692e+00 1.822031767497203418e+02
4.010000000000234266e+00 1.810921157903601113e+02
4.030000000000233840e+00 1.795304022127851056e+02
4.050000000000233413e+00 1.761562665851997735e+02
4.070000000000232987e+00 1.741348275853890470e+02
4.090000000000232561e+00 1.718068294714908006e+02
4.110000000000232134e+00 1.697671678239403548e+02
4.130000000000231708e+00 1.671956781968892756e+02
4.150000000000231282e+00 1.647792581128491349e+02
4.170000000000230855e+00 1.622016788748260296e+02
4.190000000000230429e+00 1.596865970320722852e+02
4.210000000000230003e+00 1.575096767504633704e+02
4.230000000000229576e+00 1.554252451966645765e+02
4.250000000000229150e+00 1.521060724631562096e+02
4.270000000000228724e+00 1.506026113210993174e+02
4.290000000000228297e+00 1.484817670914055725e+02
4.310000000000227871e+00 1.469965215949629851e+02
4.330000000000227445e+00 1.453836326253992866e+02
4.350000000000227018e+00 1.419686825505729644e+02
4.370000000000226592e+00 1.395894492232500852e+02
4.390000000000226166e+00 1.372560082156155374e+02
4.410000000000225739e+00 1.353035047965638284e+02
4.430000000000225313e+00 1.338111240926278356e+02
4.450000000000224887e+00 1.321971048919189684e+02
4.470000000000224460e+00 1.306551329522853564e+02
4.490000000000224034e+00 1.289847635479016503e+02
4.510000000000223608e+00 1.269429958014971760e+02
4.530000000000223181e+00 1.256004709154103409e+02
4.550000000000222755e+00 1.244433222987787815e+02
4.570000000000222329e+00 1.224060355120483905e+02
4.590000000000221902e+00 1.206715331924633716e+02
4.610000000000221476e+00 1.189677247789910695e+02
4.630000000000221050e+00 1.170769882518910521e+02
4.650000000000220624e+00 1.153496248566122375e+02
4.670000000000220197e+00 1.140863187986703480e+02
4.690000000000219771e+00 1.131334792807287215e+02
4.710000000000219345e+00 1.112030096940613930e+02
4.730000000000218918e+00 1.097751964745263962e+02
4.750000000000218492e+00 1.082755096982998708e+02
4.770000000000218066e+00 1.066453230705928803e+02
4.790000000000217639e+00 1.056447564148241725e+02
4.810000000000217213e+00 1.045379255101505578e+02
4.830000000000216787e+00 1.027946501781736544e+02
4.850000000000216360e+00 1.011930259766023283e+02
4.870000000000215934e+00 1.003010101099842331e+02
4.890000000000215508e+00 9.903283838122084148e+01
4.910000000000215081e+00 9.741456061074897832e+01
4.930000000000214655e+00 9.614499561333748545e+01
4.950000000000214229e+00 9.464615907006464113e+01
4.970000000000213802e+00 9.355297729509801741e+01
4.990000000000213376e+00 9.217267263590282766e+01
5.010000000000212950e+00 9.095662164472390998e+01
5.030000000000212523e+00 9.007182353054948010e+01
5.050000000000212097e+00 8.925172361850849256e+01
5.070000000000211671e+00 8.798933301574744803e+01
5.090000000000211244e+00 8.724020288427644232e+01
5.110000000000210818e+00 8.624686900203356288e+01
5.130000000000210392e+00 8.505539901285935400e+01
5.150000000000209965e+00 8.353252518528654491e+01
5.170000000000209539e+00 8.287802713440208890e+01
5.190000000000209113e+00 8.156534117933202310e+01
5.210000000000208686e+00 8.063896830118915204e+01
5.230000000000208260e+00 7.937349266910223378e+01
5.250000000000207834e+00 7.859018431639943003e+01
5.270000000000207407e+00 7.753925816841999108e+01
5.290000000000206981e+00 7.744601349011203695e+01
5.310000000000206555e+00 7.566289995707164451e+01
5.330000000000206128e+00 7.494063093056927016e+01
5.350000000000205702e+00 7.421923131267149643e+01
5.370000000000205276e+00 7.300869114187348430e+01
5.390000000000204849e+00 7.224888404933871300e+01
5.410000000000204423e+00 7.163284570627928360e+01
5.430000000000203997e+00 7.093609671593836197e+01
5.450000000000203570e+00 7.006379836440451925e+01
5.470000000000203144e+00 6.893159786429308156e+01
5.490000000000202718e+00 6.863599096805242539e+01
5.510000000000202292e+00 6.753868117357198742e+01
5.530000000000201865e+00 6.653587397427830297e+01
5.550000000000201439e+00 6.564270501253500356e+01
5.570000000000201013e+00 6.452081860514599043e+01
5.590000000000200586e+00 6.376783813149867797e+01
5.610000000000200160e+00 6.330096464017675117e+01
5.630000000000199734e+00 6.255655244593565811e+01
5.650000000000199307e+00 6.219554301560367549e+01
5.670000000000198881e+00 6.137918818278347999e+01
5.690000000000198455e+00 6.062996247628489499e+01
5.710000000000198028e+00 5.991143927716741047e+01
5.730000000000197602e+00 5.960414033346894769e+01
5.750000000000197176e+00 5.874146866175553328e+01
5.770000000000196749e+00 5.781506297185107002e+01
5.790000000000196323e+00 5.688189559075403423e+01
5.810000000000195897e+00 5.670371561260326132e+01
5.830000000000195470e+00 5.615872896619072918e+01
5.850000000000195044e+00 5.554576866706359084e+01
5.870000000000194618e+00 5.461119903143033127e+01
5.890000000000194191e+00 5.414881537770865805e+01
5.910000000000193765e+00 5.378629728517221764e+01
5.930000000000193339e+00 5.328504910926720584e+01
5.950000000000192912e+00 5.267192418966665457e+01
5.970000000000192486e+00 5.215122693338125259e+01
5.990000000000192060e+00 5.179507664730542160e+01
6.010000000000191633e+00 5.093891723705065999e+01
6.030000000000191207e+00 5.078883305930565939e+01
6.050000000000190781e+00 5.011570109399083606e+01
6.070000000000190354e+00 4.946105301103732899e+01
6.090000000000189928e+00 4.947307164889135578e+01
6.110000000000189502e+00 4.886847993978108207e+01
6.130000000000189075e+00 4.804775812048109174e+01
6.150000000000188649e+00 4.755499515667615640e+01
6.170000000000188223e+00 4.686595840578974759e+01
6.190000000000187796e+00 4.651950875750858216e+01
6.210000000000187370e+00 4.592529965309507389e+01
6.230000000000186944e+00 4.580217499420483307e+01
6.250000000000186517e+00 4.486658479216863071e+01
6.270000000000186091e+00 4.457145069417441618e+01
6.290000000000185665e+00 4.418766697099750473e+01
6.310000000000185238e+00 4.394120679044951316e+01
6.330000000000184812e+00 4.339683150756167151e+01
6.350000000000184386e+00 4.267522222642779184e+01
6.370000000000183960e+00 4.248599996659596911e+01
6.390000000000183533e+00 4.182709752177275675e+01
6.410000000000183107e+00 4.169803009343943501e+01
6.430000000000182681e+00 4.169623442668628144e+01
6.450000000000182254e+00 4.100216593082292604e+01
6.470000000000181828e+00 4.069264928621999644e+01
6.490000000000181402e+00 4.063829482353422407e+01
6.510000000000180975e+00 4.001832630594257267e+01
6.530000000000180549e+00 3.961607837225230355e+01
6.550000000000180123e+00 3.902825725932228096e+01
6.570000000000179696e+00 3.871487641011214720e+01
6.590000000000179270e+00 3.834932969202529307e+01
6.610000000000178844e+00 3.767091313674831099e+01
6.630000000000178417e+00 3.754931732710230818e+01
6.650000000000177991e+00 3.706697067153191938e+01
6.670000000000177565e+00 3.673743234427168858e+01
6.690000000000177138e+00 3.657929764577203713e+01
6.710000000000176712e+00 3.608731345451798234e+01
6.730000000000176286e+00 3.590148229219549592e+01
6.750000000000175859e+00 3.562117237491893462e+01
6.770000000000175433e+00 3.518134448296989802e+01
6.790000000000175007e+00 3.503284901193242007e+01
6.810000000000174580e+00 3.448866624857555507e+01
6.830000000000174154e+00 3.417071651813729005e+01
6.850000000000173728e+00 3.394222927690784530e+01
6.870000000000173301e+00 3.359758779819380692e+01
6.890000000000172875e+00 3.362842999425895840e+01
6.910000000000172449e+00 3.347762959142063011e+01
6.930000000000172022e+00 3.275860579164410069e+01
6.950000000000171596e+00 3.268630116495906890e+01
6.970000000000171170e+00 3.217307449108237449e+01
6.990000000000170743e+00 3.162320776408225598e+01
7.010000000000170317e+00 3.161039307680917076e+01
7.030000000000169891e+00 3.113467476414741597e+01
7.050000000000169464e+00 3.081227085059802917e+01
7.070000000000169038e+00 3.054971682930056431e+01
7.090000000000168612e+00 3.040571844650771638e+01
7.110000000000168185e+00 3.013474012296289573e+01
7.130000000000167759e+00 2.993864073447482710e+01
7.150000000000167333e+00 2.950936269053957162e+01
7.170000000000166906e+00 2.917521832195445697e+01
7.190000000000166480e+00 2.886230493067605707e+01
7.210000000000166054e+00 2.851879853588506819e+01
7.230000000000165628e+00 2.835421001144668551e+01
7.250000000000165201e+00 2.866016080975144931e+01
7.270000000000164775e+00 2.820466312837589840e+01
7.290000000000164349e+00 2.759251220108897229e+01
7.310000000000163922e+00 2.741435306527499804e+01
7.330000000000163496e+00 2.723081721480999207e+01
7.350000000000163070e+00 2.701817668455548116e+01
7.370000000000162643e+00 2.690447924692647419e+01
7.390000000000162217e+00 2.622534802405484555e+01
7.410000000000161791e+00 2.612512207872801540e+01
7.430000000000161364e+00 2.587186638001417194e+01
7.450000000000160938e+00 2.569831581500787365e+01
7.470000000000160512e+00 2.542236457506274760e+01
7.490000000000160085e+00 2.527696225155946763e+01
7.510000000000159659e+00 2.499518382356531632e+01
7.530000000000159233e+00 2.474894122034828570e+01
7.550000000000158806e+00 2.440008476517100888e+01
7.570000000000158380e+00 2.416976053153399917e+01
7.590000000000157954e+00 2.406105664195699845e+01
7.610000000000157527e+00 2.368891135599664466e+01
7.630000000000157101e+00 2.360779173003498599e+01
7.650000000000156675e+00 2.327131482878779423e+01
7.670000000000156248e+00 2.312495750335282452e+01
7.690000000000155822e+00 2.275229550414801594e+01
7.710000000000155396e+00 2.277944067040249720e+01
7.730000000000154969e+00 2.244931050451326016e+01
7.750000000000154543e+00 2.218482872632304037e+01
7.770000000000154117e+00 2.193776074721512614e+01
7.790000000000153690e+00 2.184530826013299176e+01
7.810000000000153264e+00 2.166560392277541780e+01
7.830000000000152838e+00 2.142481480125371007e+01
7.850000000000152411e+00 2.100828468724331444e+01
7.870000000000151985e+00 2.081742133150606122e+01
7.890000000000151559e+00 2.079938421607990762e+01
7.910000000000151132e+00 2.057711260846045320e+01
7.930000000000150706e+00 2.012965918309799562e+01
7.950000000000150280e+00 1.993485839659044956e+01
7.970000000000149853e+00 1.981358401698481586e+01
