# Redshift		Merger Rate Density [Gpc^-3yr^-1]
1.000000000031931770e-02 1.211706884376107141e+01
3.000000000031888964e-02 1.274592977377572289e+01
5.000000000031846331e-02 1.323782163520231059e+01
7.000000000031804392e-02 1.383917824006276298e+01
9.000000000031761760e-02 1.447169412282659984e+01
1.100000000003171913e-01 1.503750538794428593e+01
1.300000000003167511e-01 1.574636363150688112e+01
1.500000000003163247e-01 1.629812207946197944e+01
1.700000000003158984e-01 1.698215785476046591e+01
1.900000000003154721e-01 1.759402882855117056e+01
2.100000000003150458e-01 1.820191010799626241e+01
2.300000000003146194e-01 1.873330373715690556e+01
2.500000000003141931e-01 1.946409440300195470e+01
2.700000000003137668e-01 2.019088346343571061e+01
2.900000000003133405e-01 2.073128564809004004e+01
3.100000000003129141e-01 2.135162874143288647e+01
3.300000000003124878e-01 2.217905722817581804e+01
3.500000000003120615e-01 2.274518557782789685e+01
3.700000000003116352e-01 2.351146182908602711e+01
3.900000000003112088e-01 2.399068623411284662e+01
4.100000000003107825e-01 2.477836336206926049e+01
4.300000000003103562e-01 2.548567280929283285e+01
4.500000000003099299e-01 2.607335244494257509e+01
4.700000000003095035e-01 2.688548537137061345e+01
4.900000000003090772e-01 2.767353095701738042e+01
5.100000000003086509e-01 2.819228069858601060e+01
5.300000000003082246e-01 2.902603148756013951e+01
5.500000000003077982e-01 2.982717444833589227e+01
5.700000000003073719e-01 3.056230477832574266e+01
5.900000000003069456e-01 3.134758311315720292e+01
6.100000000003065193e-01 3.187952275337604391e+01
6.300000000003060929e-01 3.288956470029734902e+01
6.500000000003056666e-01 3.365584240624871626e+01
6.700000000003052403e-01 3.441168631664498179e+01
6.900000000003048140e-01 3.505332865931615061e+01
7.100000000003043876e-01 3.600130377700563855e+01
7.300000000003039613e-01 3.678752087444764385e+01
7.500000000003035350e-01 3.747445194750955721e+01
7.700000000003031086e-01 3.846451848738440304e+01
7.900000000003026823e-01 3.921232433198972700e+01
8.100000000003022560e-01 4.015556723467476985e+01
8.300000000003018297e-01 4.078279154177285903e+01
8.500000000003014033e-01 4.177559998808367681e+01
8.700000000003009770e-01 4.250277295099548525e+01
8.900000000003005507e-01 4.355148550866926627e+01
9.100000000003001244e-01 4.419933648602171417e+01
9.300000000002996980e-01 4.511239948027477453e+01
9.500000000002992717e-01 4.595255339725721910e+01
9.700000000002988454e-01 4.667670901467740663e+01
9.900000000002984191e-01 4.768849938418140511e+01
1.010000000000297993e+00 4.837811702642664358e+01
1.030000000000297566e+00 4.933536222018750550e+01
1.050000000000297140e+00 5.000492187537802380e+01
1.070000000000296714e+00 5.079349666337644464e+01
1.090000000000296287e+00 5.159383954975016451e+01
1.110000000000295861e+00 5.258931021678450435e+01
1.130000000000295435e+00 5.309252321238519556e+01
1.150000000000295008e+00 5.387319893703008944e+01
1.170000000000294582e+00 5.450718127136110525e+01
1.190000000000294156e+00 5.536952871450894520e+01
1.210000000000293729e+00 5.593579526503820887e+01
1.230000000000293303e+00 5.648241804757252993e+01
1.250000000000292877e+00 5.748335033563184027e+01
1.270000000000292451e+00 5.777695884363698298e+01
1.290000000000292024e+00 5.839582874964869319e+01
1.310000000000291598e+00 5.937244843830353602e+01
1.330000000000291172e+00 5.966867353608616753e+01
1.350000000000290745e+00 6.029016573562908121e+01
1.370000000000290319e+00 6.080029659582686463e+01
1.390000000000289893e+00 6.122579282465731154e+01
1.410000000000289466e+00 6.172304072982987577e+01
1.430000000000289040e+00 6.229148909384183952e+01
1.450000000000288614e+00 6.251016675496546071e+01
1.470000000000288187e+00 6.312564741044391781e+01
1.490000000000287761e+00 6.342099845241521194e+01
1.510000000000287335e+00 6.348440101806576763e+01
1.530000000000286908e+00 6.412798357849052877e+01
1.550000000000286482e+00 6.420527399863711082e+01
1.570000000000286056e+00 6.458267149482313130e+01
1.590000000000285629e+00 6.468162034580421960e+01
1.610000000000285203e+00 6.464151235234776038e+01
1.630000000000284777e+00 6.493260448270513052e+01
1.650000000000284350e+00 6.474745560323103177e+01
1.670000000000283924e+00 6.514406667054659295e+01
1.690000000000283498e+00 6.517632366245923947e+01
1.710000000000283071e+00 6.523058313539129927e+01
1.730000000000282645e+00 6.505511875522665832e+01
1.750000000000282219e+00 6.484311668838496701e+01
1.770000000000281792e+00 6.505983637438008316e+01
1.790000000000281366e+00 6.451504432143079271e+01
1.810000000000280940e+00 6.476975103464562267e+01
1.830000000000280513e+00 6.432182391217232009e+01
1.850000000000280087e+00 6.398418674710056564e+01
1.870000000000279661e+00 6.403162779829962403e+01
1.890000000000279234e+00 6.376535156124100467e+01
1.910000000000278808e+00 6.333269493604137068e+01
1.930000000000278382e+00 6.275755872830720961e+01
1.950000000000277955e+00 6.230433454446176000e+01
1.970000000000277529e+00 6.228313963676467324e+01
1.990000000000277103e+00 6.188532145887411673e+01
2.010000000000276899e+00 6.132833723557268257e+01
2.030000000000276472e+00 6.077619771560926409e+01
2.050000000000276046e+00 6.046562227187276051e+01
2.070000000000275620e+00 6.040869589554744579e+01
2.090000000000275193e+00 6.009716232880882103e+01
2.110000000000274767e+00 5.896346203242772788e+01
2.130000000000274341e+00 5.811627269718999855e+01
2.150000000000273914e+00 5.802642261657969414e+01
2.170000000000273488e+00 5.748735992640512649e+01
2.190000000000273062e+00 5.654121575571184621e+01
2.210000000000272635e+00 5.665481850437645761e+01
2.230000000000272209e+00 5.616627900874037493e+01
2.250000000000271783e+00 5.509555667617146213e+01
2.270000000000271356e+00 5.483140699024652065e+01
2.290000000000270930e+00 5.500049739741596966e+01
2.310000000000270504e+00 5.496549715230833044e+01
2.330000000000270077e+00 5.383912914499124724e+01
2.350000000000269651e+00 5.182160184626162902e+01
2.370000000000269225e+00 5.170985660639733084e+01
2.390000000000268798e+00 4.905523439895227966e+01
2.410000000000268372e+00 4.870828059111399000e+01
2.430000000000267946e+00 4.759669301288607812e+01
2.450000000000267519e+00 4.670053818960354164e+01
2.470000000000267093e+00 4.595769607840230719e+01
2.490000000000266667e+00 4.462943580142036382e+01
2.510000000000266240e+00 4.402614114008947155e+01
2.530000000000265814e+00 4.299225152046235365e+01
2.550000000000265388e+00 4.185545432802221910e+01
2.570000000000264961e+00 4.106501561776533293e+01
2.590000000000264535e+00 4.023056404561506838e+01
2.610000000000264109e+00 3.930351130900228895e+01
2.630000000000263682e+00 3.880632858071921731e+01
2.650000000000263256e+00 3.781632848873191222e+01
2.670000000000262830e+00 3.699799438888705083e+01
2.690000000000262403e+00 3.648297320743210292e+01
2.710000000000261977e+00 3.536897120458880295e+01
2.730000000000261551e+00 3.494053843237893631e+01
2.750000000000261124e+00 3.415373214325308027e+01
2.770000000000260698e+00 3.341670209966121519e+01
2.790000000000260272e+00 3.264991491061795159e+01
2.810000000000259845e+00 3.204476757167599033e+01
2.830000000000259419e+00 3.123297356943166392e+01
2.850000000000258993e+00 3.078474026110257000e+01
2.870000000000258567e+00 3.004136899616877798e+01
2.890000000000258140e+00 2.950328547043318395e+01
2.910000000000257714e+00 2.876249196743303571e+01
2.930000000000257288e+00 2.808940517083319222e+01
2.950000000000256861e+00 2.747053331572059065e+01
2.970000000000256435e+00 2.693836079061403410e+01
2.990000000000256009e+00 2.634032078571445012e+01
3.010000000000255582e+00 2.577523715782698588e+01
3.030000000000255156e+00 2.506007512381018643e+01
3.050000000000254730e+00 2.454016561156242560e+01
3.070000000000254303e+00 2.394991200202781201e+01
3.090000000000253877e+00 2.347185473839227754e+01
3.110000000000253451e+00 2.290850777839820296e+01
3.130000000000253024e+00 2.240052448634144611e+01
3.150000000000252598e+00 2.186008649344843846e+01
3.170000000000252172e+00 2.139579660198480582e+01
3.190000000000251745e+00 2.083558245769768646e+01
3.210000000000251319e+00 2.039454945994317825e+01
3.230000000000250893e+00 1.994783464259265315e+01
3.250000000000250466e+00 1.955534391454003185e+01
3.270000000000250040e+00 1.897744807057467753e+01
3.290000000000249614e+00 1.854622341040187550e+01
3.310000000000249187e+00 1.804450778590698690e+01
3.330000000000248761e+00 1.766959216030625157e+01
3.350000000000248335e+00 1.728844985632144571e+01
3.370000000000247908e+00 1.687750740841574171e+01
3.390000000000247482e+00 1.643284952805992916e+01
3.410000000000247056e+00 1.602740261668267507e+01
3.430000000000246629e+00 1.570524974629996073e+01
3.450000000000246203e+00 1.524581621740731485e+01
3.470000000000245777e+00 1.495612330498429543e+01
3.490000000000245350e+00 1.459957559891362955e+01
3.510000000000244924e+00 1.424389569848982795e+01
3.530000000000244498e+00 1.390663371140751714e+01
3.550000000000244071e+00 1.350071218113569849e+01
3.570000000000243645e+00 1.325634519624566110e+01
3.590000000000243219e+00 1.290222561114407185e+01
3.610000000000242792e+00 1.255902775179149522e+01
3.630000000000242366e+00 1.228330867742466737e+01
3.650000000000241940e+00 1.204209955028987977e+01
3.670000000000241513e+00 1.168595884436285814e+01
3.690000000000241087e+00 1.164961549562289811e+01
3.710000000000240661e+00 1.145499992649960852e+01
3.730000000000240234e+00 1.116624883099011356e+01
3.750000000000239808e+00 1.089101852114526281e+01
3.770000000000239382e+00 1.062684261482621473e+01
3.790000000000238956e+00 1.037366461262514150e+01
3.810000000000238529e+00 1.009102067393058633e+01
3.830000000000238103e+00 1.000127414962874184e+01
3.850000000000237677e+00 9.678057769269502231e+00
3.870000000000237250e+00 9.466916934557609409e+00
3.890000000000236824e+00 9.011235886943316231e+00
3.910000000000236398e+00 8.889866133675266013e+00
3.930000000000235971e+00 8.628385812021109658e+00
3.950000000000235545e+00 8.513856297062558198e+00
3.970000000000235119e+00 8.086249404449141309e+00
3.990000000000234692e+00 7.892295627206127762e+00
4.010000000000234266e+00 7.670396917998023589e+00
4.030000000000233840e+00 7.599380023156928843e+00
4.050000000000233413e+00 7.439400211705767596e+00
4.070000000000232987e+00 7.134788598132268511e+00
4.090000000000232561e+00 7.053610058825708684e+00
4.110000000000232134e+00 6.814862687281916465e+00
4.130000000000231708e+00 6.721799565925071995e+00
4.150000000000231282e+00 6.479287645042099086e+00
4.170000000000230855e+00 6.405393104384176972e+00
4.190000000000230429e+00 6.173744426511407646e+00
4.210000000000230003e+00 6.046510746721907026e+00
4.230000000000229576e+00 5.795788039155420179e+00
4.250000000000229150e+00 5.602194555988748270e+00
4.270000000000228724e+00 5.478363656310877516e+00
4.290000000000228297e+00 5.303810897972534910e+00
4.310000000000227871e+00 5.159417316779538965e+00
4.330000000000227445e+00 5.049333119756716393e+00
4.350000000000227018e+00 4.913555994628744372e+00
4.370000000000226592e+00 4.777054988785999434e+00
4.390000000000226166e+00 4.689570099587852425e+00
4.410000000000225739e+00 4.545086620474757311e+00
4.430000000000225313e+00 4.443556529452231452e+00
4.450000000000224887e+00 4.327339999413095661e+00
4.470000000000224460e+00 4.210693461244221503e+00
4.490000000000224034e+00 4.131088224178166790e+00
4.510000000000223608e+00 3.998815639505451269e+00
4.530000000000223181e+00 3.898992633525419471e+00
4.550000000000222755e+00 3.799094837487929865e+00
4.570000000000222329e+00 3.707120826114486789e+00
4.590000000000221902e+00 3.606871690126760566e+00
4.610000000000221476e+00 3.510367277799262720e+00
4.630000000000221050e+00 3.425140124347680004e+00
4.650000000000220624e+00 3.346608003139988963e+00
4.670000000000220197e+00 3.249182127754948191e+00
4.690000000000219771e+00 3.168672030619244406e+00
4.710000000000219345e+00 3.089560191432584535e+00
4.730000000000218918e+00 3.010243950581414030e+00
4.750000000000218492e+00 3.038969587899713165e+00
4.770000000000218066e+00 2.987754159107363972e+00
4.790000000000217639e+00 2.976272124336616365e+00
4.810000000000217213e+00 2.809011098045513410e+00
4.830000000000216787e+00 2.783885264218566302e+00
4.850000000000216360e+00 2.657657409951104999e+00
4.870000000000215934e+00 2.573408620669638935e+00
4.890000000000215508e+00 2.516409201647072713e+00
4.910000000000215081e+00 2.417642853230020705e+00
4.930000000000214655e+00 2.419514092818503492e+00
4.950000000000214229e+00 2.302170773438805274e+00
4.970000000000213802e+00 2.252881478979108731e+00
4.990000000000213376e+00 2.138323195019730782e+00
5.010000000000212950e+00 2.122235428818992187e+00
5.030000000000212523e+00 1.992718851414003289e+00
5.050000000000212097e+00 1.943035762066084970e+00
5.070000000000211671e+00 1.934350178843561308e+00
5.090000000000211244e+00 1.833026177588514827e+00
5.110000000000210818e+00 1.778220758295455228e+00
5.130000000000210392e+00 1.717000345099905401e+00
5.150000000000209965e+00 1.663856242877267855e+00
5.170000000000209539e+00 1.646363849863089923e+00
5.190000000000209113e+00 1.584627111058434235e+00
5.210000000000208686e+00 1.536233507329245906e+00
5.230000000000208260e+00 1.486405820069999217e+00
5.250000000000207834e+00 1.448417197949632307e+00
5.270000000000207407e+00 1.402499587074360843e+00
5.290000000000206981e+00 1.363290943594539506e+00
5.310000000000206555e+00 1.325767713597786779e+00
5.330000000000206128e+00 1.288815252662586452e+00
5.350000000000205702e+00 1.245379478149646779e+00
5.370000000000205276e+00 1.205553949743399134e+00
5.390000000000204849e+00 1.172383159611815051e+00
5.410000000000204423e+00 1.131975956316246368e+00
5.430000000000203997e+00 1.095853081445475885e+00
5.450000000000203570e+00 1.063673868582172943e+00
5.470000000000203144e+00 1.030324813331799927e+00
5.490000000000202718e+00 9.994547997532652328e-01
5.510000000000202292e+00 9.687385737979478106e-01
5.530000000000201865e+00 9.399977716449554599e-01
5.550000000000201439e+00 9.098237556197402709e-01
5.570000000000201013e+00 9.040630382266934273e-01
5.590000000000200586e+00 9.151276800909734499e-01
5.610000000000200160e+00 8.775561806717324664e-01
5.630000000000199734e+00 8.911747258769444624e-01
5.650000000000199307e+00 8.001554544872332420e-01
5.670000000000198881e+00 8.244115014872465119e-01
5.690000000000198455e+00 7.441388855644506251e-01
5.710000000000198028e+00 7.206503994773812982e-01
5.730000000000197602e+00 7.096044288868429417e-01
5.750000000000197176e+00 6.706437870015959923e-01
5.770000000000196749e+00 6.413697850234428843e-01
5.790000000000196323e+00 6.255929928480840063e-01
5.810000000000195897e+00 5.981307291316979580e-01
5.830000000000195470e+00 5.842712030048781147e-01
5.850000000000195044e+00 5.512288970285317280e-01
5.870000000000194618e+00 5.310061725102031005e-01
5.890000000000194191e+00 5.202558338784359915e-01
5.910000000000193765e+00 4.898060971216408044e-01
5.930000000000193339e+00 4.713118013093295922e-01
5.950000000000192912e+00 4.648752237337857585e-01
5.970000000000192486e+00 4.380099076066495400e-01
5.990000000000192060e+00 4.242011298259824037e-01
6.010000000000191633e+00 4.062691446576888188e-01
6.030000000000191207e+00 3.909691306448638271e-01
6.050000000000190781e+00 3.788044085097247993e-01
6.070000000000190354e+00 3.658209740716789060e-01
6.090000000000189928e+00 3.520645713602426619e-01
6.110000000000189502e+00 3.370069141485833031e-01
6.130000000000189075e+00 3.252152332549821945e-01
6.150000000000188649e+00 3.132898134320489247e-01
6.170000000000188223e+00 3.010385724007675345e-01
6.190000000000187796e+00 2.896313477600734876e-01
6.210000000000187370e+00 2.796672289161081237e-01
6.230000000000186944e+00 2.679466279009485308e-01
6.250000000000186517e+00 2.581623148291368186e-01
6.270000000000186091e+00 2.667593292895551471e-01
6.290000000000185665e+00 2.612443903833324144e-01
6.310000000000185238e+00 2.449283673923769999e-01
6.330000000000184812e+00 2.395870357088870362e-01
6.350000000000184386e+00 2.152006498237777343e-01
6.370000000000183960e+00 2.137229459498563022e-01
6.390000000000183533e+00 2.036336605957304313e-01
6.410000000000183107e+00 1.968939658965446204e-01
6.430000000000182681e+00 1.818195968254163186e-01
6.450000000000182254e+00 1.704453461234053113e-01
6.470000000000181828e+00 1.624819900042640541e-01
6.490000000000181402e+00 1.588298359544885185e-01
6.510000000000180975e+00 1.486671458665591583e-01
6.530000000000180549e+00 1.434547919891164536e-01
6.550000000000180123e+00 1.361955438724602729e-01
6.570000000000179696e+00 1.295014544016657998e-01
6.590000000000179270e+00 1.236538602809034715e-01
6.610000000000178844e+00 1.188014246830550597e-01
6.630000000000178417e+00 1.122823063381373776e-01
6.650000000000177991e+00 1.070312115424270627e-01
6.670000000000177565e+00 1.035125092564986166e-01
6.690000000000177138e+00 9.821101991226362238e-02
6.710000000000176712e+00 9.296832721674165578e-02
6.730000000000176286e+00 8.913412040137597137e-02
6.750000000000175859e+00 8.473088912907453252e-02
6.770000000000175433e+00 8.080136732708184666e-02
6.790000000000175007e+00 7.729518079334331271e-02
6.810000000000174580e+00 7.394012685428802412e-02
6.830000000000174154e+00 7.022250248003893136e-02
6.850000000000173728e+00 6.692440082855623251e-02
6.870000000000173301e+00 6.749914021603575787e-02
6.890000000000172875e+00 6.562055794768327510e-02
6.910000000000172449e+00 6.087263199748557674e-02
6.930000000000172022e+00 6.392879451738478491e-02
6.950000000000171596e+00 5.352696795905904914e-02
6.970000000000171170e+00 5.440657033744597526e-02
6.990000000000170743e+00 4.914498132172576139e-02
7.010000000000170317e+00 4.535890280277237591e-02
7.030000000000169891e+00 4.379798890408118789e-02
7.050000000000169464e+00 4.106225890643577098e-02
7.070000000000169038e+00 3.757993869796887737e-02
7.090000000000168612e+00 3.566725627028587836e-02
7.110000000000168185e+00 3.436475474142185876e-02
7.130000000000167759e+00 3.185279929581963376e-02
7.150000000000167333e+00 3.036990483778357133e-02
7.170000000000166906e+00 2.873406673260905930e-02
7.190000000000166480e+00 2.732095356396812766e-02
7.210000000000166054e+00 2.537069656160390388e-02
7.230000000000165628e+00 2.457837525630661782e-02
7.250000000000165201e+00 2.282836223755517827e-02
7.270000000000164775e+00 2.154177497598939658e-02
7.290000000000164349e+00 2.036436516120154055e-02
7.310000000000163922e+00 1.941793499124015027e-02
7.330000000000163496e+00 1.828519822100702075e-02
7.350000000000163070e+00 1.718272334736864124e-02
7.370000000000162643e+00 1.628948133511523913e-02
7.390000000000162217e+00 1.533020288036556107e-02
7.410000000000161791e+00 1.540142280941965945e-02
7.430000000000161364e+00 1.485253193608589324e-02
7.450000000000160938e+00 1.366148666688246291e-02
7.470000000000160512e+00 1.351583529948739877e-02
7.490000000000160085e+00 1.239493035723094466e-02
7.510000000000159659e+00 1.148381708572678538e-02
7.530000000000159233e+00 1.016602173006122059e-02
7.550000000000158806e+00 9.881861236422749897e-03
7.570000000000158380e+00 9.225736986170606987e-03
7.590000000000157954e+00 8.406430296422014864e-03
7.610000000000157527e+00 7.914402111820432323e-03
7.630000000000157101e+00 7.211422365201979219e-03
7.650000000000156675e+00 6.691579182830293022e-03
7.670000000000156248e+00 6.414194053628999477e-03
7.690000000000155822e+00 5.928788601272443233e-03
7.710000000000155396e+00 5.549339325696333106e-03
7.730000000000154969e+00 5.218340150933569593e-03
7.750000000000154543e+00 4.889854194311571076e-03
7.770000000000154117e+00 4.547134522256244746e-03
7.790000000000153690e+00 4.302415868893792392e-03
7.810000000000153264e+00 3.989029509863870580e-03
7.830000000000152838e+00 3.734902394887987340e-03
7.850000000000152411e+00 3.487816989450064770e-03
7.870000000000151985e+00 3.272300866206845956e-03
7.890000000000151559e+00 3.078682129705834734e-03
7.910000000000151132e+00 3.128707354056142146e-03
7.930000000000150706e+00 2.998860549781271184e-03
7.950000000000150280e+00 2.540382668171275136e-03
7.970000000000149853e+00 2.734259599556275021e-03
