# Redshift		Merger Rate Density [Gpc^-3yr^-1]
1.000000000031931770e-02 6.485144536153593720e+01
3.000000000031888964e-02 6.779847242410176023e+01
5.000000000031846331e-02 7.084927910922773719e+01
7.000000000031804392e-02 7.345707359839816775e+01
9.000000000031761760e-02 7.702953347330775102e+01
1.100000000003171913e-01 7.947940745224163095e+01
1.300000000003167511e-01 8.318320146577140406e+01
1.500000000003163247e-01 8.680958706460680219e+01
1.700000000003158984e-01 8.993977142759656829e+01
1.900000000003154721e-01 9.263325356513807662e+01
2.100000000003150458e-01 9.689505633882859570e+01
2.300000000003146194e-01 1.008978628438922129e+02
2.500000000003141931e-01 1.031884661405204895e+02
2.700000000003137668e-01 1.077211361000348262e+02
2.900000000003133405e-01 1.107671463886662195e+02
3.100000000003129141e-01 1.145207923744530376e+02
3.300000000003124878e-01 1.185180375109183331e+02
3.500000000003120615e-01 1.220365574245223854e+02
3.700000000003116352e-01 1.249738188734747411e+02
3.900000000003112088e-01 1.301249495265243183e+02
4.100000000003107825e-01 1.326410083309718289e+02
4.300000000003103562e-01 1.373107913173126633e+02
4.500000000003099299e-01 1.414340010701941139e+02
4.700000000003095035e-01 1.454928418819107208e+02
4.900000000003090772e-01 1.499631309317597925e+02
5.100000000003086509e-01 1.530211576798054693e+02
5.300000000003082246e-01 1.594125412096683192e+02
5.500000000003077982e-01 1.628802339030490316e+02
5.700000000003073719e-01 1.668728457574823665e+02
5.900000000003069456e-01 1.706385019212449095e+02
6.100000000003065193e-01 1.755091043754785574e+02
6.300000000003060929e-01 1.795561288244485922e+02
6.500000000003056666e-01 1.849410686128362613e+02
6.700000000003052403e-01 1.892004701619204070e+02
6.900000000003048140e-01 1.940558979848196657e+02
7.100000000003043876e-01 1.973655197399065173e+02
7.300000000003039613e-01 2.012325444595496720e+02
7.500000000003035350e-01 2.066160033222810171e+02
7.700000000003031086e-01 2.121974537195035282e+02
7.900000000003026823e-01 2.166679981828628740e+02
8.100000000003022560e-01 2.218928693056508337e+02
8.300000000003018297e-01 2.262205038598326041e+02
8.500000000003014033e-01 2.285435268882383184e+02
8.700000000003009770e-01 2.333172536457272201e+02
8.900000000003005507e-01 2.398304287866058928e+02
9.100000000003001244e-01 2.430121182191491869e+02
9.300000000002996980e-01 2.478316069738621650e+02
9.500000000002992717e-01 2.521182864590769270e+02
9.700000000002988454e-01 2.550261866831198461e+02
9.900000000002984191e-01 2.615634119864537297e+02
1.010000000000297993e+00 2.640669688778452269e+02
1.030000000000297566e+00 2.688729744091941143e+02
1.050000000000297140e+00 2.717534665414851816e+02
1.070000000000296714e+00 2.759669302130859592e+02
1.090000000000296287e+00 2.832239964343131078e+02
1.110000000000295861e+00 2.851967049671328596e+02
1.130000000000295435e+00 2.898867693674650923e+02
1.150000000000295008e+00 2.921037257008794654e+02
1.170000000000294582e+00 2.962392508283120947e+02
1.190000000000294156e+00 2.986265745406214478e+02
1.210000000000293729e+00 3.063963262117863451e+02
1.230000000000293303e+00 3.062093662954706588e+02
1.250000000000292877e+00 3.104141962655674547e+02
1.270000000000292451e+00 3.132031468739083948e+02
1.290000000000292024e+00 3.191070741389767704e+02
1.310000000000291598e+00 3.213604346738866866e+02
1.330000000000291172e+00 3.247031140433945779e+02
1.350000000000290745e+00 3.277039756260090826e+02
1.370000000000290319e+00 3.283825894836988937e+02
1.390000000000289893e+00 3.336334471479754598e+02
1.410000000000289466e+00 3.347520792175312181e+02
1.430000000000289040e+00 3.380278487951109696e+02
1.450000000000288614e+00 3.405204250645818433e+02
1.470000000000288187e+00 3.412323758311413258e+02
1.490000000000287761e+00 3.467943465474428422e+02
1.510000000000287335e+00 3.481863485081091767e+02
1.530000000000286908e+00 3.494721752755816624e+02
1.550000000000286482e+00 3.505379356887689823e+02
1.570000000000286056e+00 3.537469161467245726e+02
1.590000000000285629e+00 3.547311085414295917e+02
1.610000000000285203e+00 3.526615853069320110e+02
1.630000000000284777e+00 3.570337411625502568e+02
1.650000000000284350e+00 3.558903752793195849e+02
1.670000000000283924e+00 3.569542013604521458e+02
1.690000000000283498e+00 3.584883355427995753e+02
1.710000000000283071e+00 3.578197653798879969e+02
1.730000000000282645e+00 3.592518396450936393e+02
1.750000000000282219e+00 3.580197621870609055e+02
1.770000000000281792e+00 3.593069323499929055e+02
1.790000000000281366e+00 3.581897902819827095e+02
1.810000000000280940e+00 3.580028988823926852e+02
1.830000000000280513e+00 3.570928527250843558e+02
1.850000000000280087e+00 3.571321424495230303e+02
1.870000000000279661e+00 3.563016007270343266e+02
1.890000000000279234e+00 3.579401067763291735e+02
1.910000000000278808e+00 3.542425181518545401e+02
1.930000000000278382e+00 3.530879099151076730e+02
1.950000000000277955e+00 3.535763185071025987e+02
1.970000000000277529e+00 3.488862000911339578e+02
1.990000000000277103e+00 3.490743430926776796e+02
2.010000000000276899e+00 3.445415523503388044e+02
2.030000000000276472e+00 3.438767718388195362e+02
2.050000000000276046e+00 3.416091250678608731e+02
2.070000000000275620e+00 3.394606137305520406e+02
2.090000000000275193e+00 3.373862507967137958e+02
2.110000000000274767e+00 3.363994572987211882e+02
2.130000000000274341e+00 3.349615623307722672e+02
2.150000000000273914e+00 3.303360341125037962e+02
2.170000000000273488e+00 3.272082287505222098e+02
2.190000000000273062e+00 3.231454647992998730e+02
2.210000000000272635e+00 3.212778109905762562e+02
2.230000000000272209e+00 3.181101375474344763e+02
2.250000000000271783e+00 3.160697911276208174e+02
2.270000000000271356e+00 3.100809961426217001e+02
2.290000000000270930e+00 3.098501303365485455e+02
2.310000000000270504e+00 3.046603566418634728e+02
2.330000000000270077e+00 3.027841831531811749e+02
2.350000000000269651e+00 2.987843414978606233e+02
2.370000000000269225e+00 2.954304523323572766e+02
2.390000000000268798e+00 2.914482781831108014e+02
2.410000000000268372e+00 2.875316854040391377e+02
2.430000000000267946e+00 2.850365302209210654e+02
2.450000000000267519e+00 2.815706376253693293e+02
2.470000000000267093e+00 2.783041953663994832e+02
2.490000000000266667e+00 2.755143749772749402e+02
2.510000000000266240e+00 2.722413097636512020e+02
2.530000000000265814e+00 2.665472365128076149e+02
2.550000000000265388e+00 2.649382454529970801e+02
2.570000000000264961e+00 2.614031002651202584e+02
2.590000000000264535e+00 2.575525538557239429e+02
2.610000000000264109e+00 2.540004585010943003e+02
2.630000000000263682e+00 2.511799348848651334e+02
2.650000000000263256e+00 2.482734003491175940e+02
2.670000000000262830e+00 2.456689549015572140e+02
2.690000000000262403e+00 2.398894358319498679e+02
2.710000000000261977e+00 2.374275331890993641e+02
2.730000000000261551e+00 2.341232969084131241e+02
2.750000000000261124e+00 2.309441494410964992e+02
2.770000000000260698e+00 2.272943572356915354e+02
2.790000000000260272e+00 2.231749842256883483e+02
2.810000000000259845e+00 2.208209258629709097e+02
2.830000000000259419e+00 2.167545016898230301e+02
2.850000000000258993e+00 2.147082329177179929e+02
2.870000000000258567e+00 2.109409688978104782e+02
2.890000000000258140e+00 2.085799670279771476e+02
2.910000000000257714e+00 2.040279069869882562e+02
2.930000000000257288e+00 2.022152626215739417e+02
2.950000000000256861e+00 1.987313139982269377e+02
2.970000000000256435e+00 1.965223713120025764e+02
2.990000000000256009e+00 1.934535714700321307e+02
3.010000000000255582e+00 1.890433584949393833e+02
3.030000000000255156e+00 1.872847620184936375e+02
3.050000000000254730e+00 1.850322318833366637e+02
3.070000000000254303e+00 1.814408373553873730e+02
3.090000000000253877e+00 1.775815861465619605e+02
3.110000000000253451e+00 1.764014524471724599e+02
3.130000000000253024e+00 1.736301109412418384e+02
3.150000000000252598e+00 1.700202648074852334e+02
3.170000000000252172e+00 1.684256443378169763e+02
3.190000000000251745e+00 1.654461160788519862e+02
3.210000000000251319e+00 1.620406787822222441e+02
3.230000000000250893e+00 1.598747878563429197e+02
3.250000000000250466e+00 1.573456186066769362e+02
3.270000000000250040e+00 1.554185366667703647e+02
3.290000000000249614e+00 1.519767744618423819e+02
3.310000000000249187e+00 1.507199069246620979e+02
3.330000000000248761e+00 1.476844882480500019e+02
3.350000000000248335e+00 1.456461611627979664e+02
3.370000000000247908e+00 1.439605262065633724e+02
3.390000000000247482e+00 1.403601654935430361e+02
3.410000000000247056e+00 1.386036900769465490e+02
3.430000000000246629e+00 1.368993664861877448e+02
3.450000000000246203e+00 1.345043441915687481e+02
3.470000000000245777e+00 1.330909029120028322e+02
3.490000000000245350e+00 1.301242017709579670e+02
3.510000000000244924e+00 1.282223525863061582e+02
3.530000000000244498e+00 1.266027337216805932e+02
3.550000000000244071e+00 1.240629953929578591e+02
3.570000000000243645e+00 1.224370183141751198e+02
3.590000000000243219e+00 1.208211047899728356e+02
3.610000000000242792e+00 1.195843234507543258e+02
3.630000000000242366e+00 1.171650526004301582e+02
3.650000000000241940e+00 1.153728100507701271e+02
3.670000000000241513e+00 1.130640830051277277e+02
3.690000000000241087e+00 1.104627316922535840e+02
3.710000000000240661e+00 1.090278104235205205e+02
3.730000000000240234e+00 1.080183578337907875e+02
3.750000000000239808e+00 1.062813318489088772e+02
3.770000000000239382e+00 1.045303136845300713e+02
3.790000000000238956e+00 1.029877677901242947e+02
3.810000000000238529e+00 1.016820263749433337e+02
3.830000000000238103e+00 1.003438751249671839e+02
3.850000000000237677e+00 9.868742390596756309e+01
3.870000000000237250e+00 9.725452896952594983e+01
3.890000000000236824e+00 9.496804725976879524e+01
3.910000000000236398e+00 9.495591725001663974e+01
3.930000000000235971e+00 9.339159082584835403e+01
3.950000000000235545e+00 9.071367481796767152e+01
3.970000000000235119e+00 9.028321168947273634e+01
3.990000000000234692e+00 8.953229737839959057e+01
4.010000000000234266e+00 8.698963550572115366e+01
4.030000000000233840e+00 8.663825281613829077e+01
4.050000000000233413e+00 8.537214920694690079e+01
4.070000000000232987e+00 8.362090826922032250e+01
4.090000000000232561e+00 8.222008043813579548e+01
4.110000000000232134e+00 8.173872794360197247e+01
4.130000000000231708e+00 8.047242161396589211e+01
4.150000000000231282e+00 7.978494711507896398e+01
4.170000000000230855e+00 7.802131590261079452e+01
4.190000000000230429e+00 7.616691217290974691e+01
4.210000000000230003e+00 7.618802804768685633e+01
4.230000000000229576e+00 7.485587917877907671e+01
4.250000000000229150e+00 7.384947341853944636e+01
4.270000000000228724e+00 7.336002239213499365e+01
4.290000000000228297e+00 7.206790516276117842e+01
4.310000000000227871e+00 7.157436183974695609e+01
4.330000000000227445e+00 7.028623194741201985e+01
4.350000000000227018e+00 6.959392523003644726e+01
4.370000000000226592e+00 6.813337676561260992e+01
4.390000000000226166e+00 6.685826237451396992e+01
4.410000000000225739e+00 6.679808739665831752e+01
4.430000000000225313e+00 6.556127026857096496e+01
4.450000000000224887e+00 6.502098253038613507e+01
4.470000000000224460e+00 6.491318201435781532e+01
4.490000000000224034e+00 6.270705699290888191e+01
4.510000000000223608e+00 6.249829501944500976e+01
4.530000000000223181e+00 6.175701492402556880e+01
4.550000000000222755e+00 6.087811240407608437e+01
4.570000000000222329e+00 6.044672671570882727e+01
4.590000000000221902e+00 5.979888857265046198e+01
4.610000000000221476e+00 5.940444416200302413e+01
4.630000000000221050e+00 5.806247141683273583e+01
4.650000000000220624e+00 5.788159075205139459e+01
4.670000000000220197e+00 5.607758253956296102e+01
4.690000000000219771e+00 5.630208489697374574e+01
4.710000000000219345e+00 5.529007181361011902e+01
4.730000000000218918e+00 5.504959295535223163e+01
4.750000000000218492e+00 5.413996851578256297e+01
4.770000000000218066e+00 5.320786759395599574e+01
4.790000000000217639e+00 5.283676888083252976e+01
4.810000000000217213e+00 5.217989457377814233e+01
4.830000000000216787e+00 5.163194813119889659e+01
4.850000000000216360e+00 5.139715530091319806e+01
4.870000000000215934e+00 5.081503147434756329e+01
4.890000000000215508e+00 5.030237024589102646e+01
4.910000000000215081e+00 4.963303178892910950e+01
4.930000000000214655e+00 4.877953527589691163e+01
4.950000000000214229e+00 4.829684573880902576e+01
4.970000000000213802e+00 4.805372435715205626e+01
4.990000000000213376e+00 4.743736601446899215e+01
5.010000000000212950e+00 4.734685450679979368e+01
5.030000000000212523e+00 4.610115539593029155e+01
5.050000000000212097e+00 4.584281805114782316e+01
5.070000000000211671e+00 4.544170075630940886e+01
5.090000000000211244e+00 4.510619525816753850e+01
5.110000000000210818e+00 4.406248790448221087e+01
5.130000000000210392e+00 4.417686940788495065e+01
5.150000000000209965e+00 4.387610132846416633e+01
5.170000000000209539e+00 4.299548347387901259e+01
5.190000000000209113e+00 4.266575207544051551e+01
5.210000000000208686e+00 4.245333246409118289e+01
5.230000000000208260e+00 4.175087113070675571e+01
5.250000000000207834e+00 4.146413401498819695e+01
5.270000000000207407e+00 4.069135308284383967e+01
5.290000000000206981e+00 4.092737789320447916e+01
5.310000000000206555e+00 4.037198958451956088e+01
5.330000000000206128e+00 3.970576616806934567e+01
5.350000000000205702e+00 3.973657616780096902e+01
5.370000000000205276e+00 3.919524972480762415e+01
5.390000000000204849e+00 3.868535741554365615e+01
5.410000000000204423e+00 3.862023727557640029e+01
5.430000000000203997e+00 3.813248719219836147e+01
5.450000000000203570e+00 3.773382774105568416e+01
5.470000000000203144e+00 3.773779208395165341e+01
5.490000000000202718e+00 3.710153409786037315e+01
5.510000000000202292e+00 3.671235647857596973e+01
5.530000000000201865e+00 3.660098096633909392e+01
5.550000000000201439e+00 3.597716852345523364e+01
5.570000000000201013e+00 3.576406468900596280e+01
5.590000000000200586e+00 3.534240583227865784e+01
5.610000000000200160e+00 3.502537200092940139e+01
5.630000000000199734e+00 3.489893977654167401e+01
5.650000000000199307e+00 3.447996799274552870e+01
5.670000000000198881e+00 3.422942840850441826e+01
5.690000000000198455e+00 3.399369519459875733e+01
5.710000000000198028e+00 3.352597706105468944e+01
5.730000000000197602e+00 3.373588973321044193e+01
5.750000000000197176e+00 3.317546343719374846e+01
5.770000000000196749e+00 3.259354065448572868e+01
5.790000000000196323e+00 3.265798159756372598e+01
5.810000000000195897e+00 3.217028780553108902e+01
5.830000000000195470e+00 3.198779221476496559e+01
5.850000000000195044e+00 3.192011633889269007e+01
5.870000000000194618e+00 3.135850213085425153e+01
5.890000000000194191e+00 3.115595668880541069e+01
5.910000000000193765e+00 3.117513398495568566e+01
5.930000000000193339e+00 3.054422128176101126e+01
5.950000000000192912e+00 3.035240723398434071e+01
5.970000000000192486e+00 3.026536055995883245e+01
5.990000000000192060e+00 3.011364445128380041e+01
6.010000000000191633e+00 2.982749618637625844e+01
6.030000000000191207e+00 2.975523233650357824e+01
6.050000000000190781e+00 2.938042646543856407e+01
6.070000000000190354e+00 2.933830220640060205e+01
6.090000000000189928e+00 2.905930952936125422e+01
6.110000000000189502e+00 2.881296182601984412e+01
6.130000000000189075e+00 2.881638593851980801e+01
6.150000000000188649e+00 2.852697802494050805e+01
6.170000000000188223e+00 2.807583215726383941e+01
6.190000000000187796e+00 2.807609808212459868e+01
6.210000000000187370e+00 2.782219108472312286e+01
6.230000000000186944e+00 2.760973731802064535e+01
6.250000000000186517e+00 2.718280244562347647e+01
6.270000000000186091e+00 2.740846663242562542e+01
6.290000000000185665e+00 2.694631093756636986e+01
6.310000000000185238e+00 2.677879717511129698e+01
6.330000000000184812e+00 2.667448962119131650e+01
6.350000000000184386e+00 2.643409366782231729e+01
6.370000000000183960e+00 2.646807888954219123e+01
6.390000000000183533e+00 2.616708837740276294e+01
6.410000000000183107e+00 2.591461713039786829e+01
6.430000000000182681e+00 2.592468656473855759e+01
6.450000000000182254e+00 2.587380271003850751e+01
6.470000000000181828e+00 2.555184576640517591e+01
6.490000000000181402e+00 2.551992280966182847e+01
6.510000000000180975e+00 2.503164508217052031e+01
6.530000000000180549e+00 2.521034880259366062e+01
6.550000000000180123e+00 2.504254136743243464e+01
6.570000000000179696e+00 2.489516700464612597e+01
6.590000000000179270e+00 2.462898167384521386e+01
6.610000000000178844e+00 2.437751583827624202e+01
6.630000000000178417e+00 2.463303757102979930e+01
6.650000000000177991e+00 2.435138297009178387e+01
6.670000000000177565e+00 2.439051199867247988e+01
6.690000000000177138e+00 2.415207472921197152e+01
6.710000000000176712e+00 2.367161620067891192e+01
6.730000000000176286e+00 2.388326456961838318e+01
6.750000000000175859e+00 2.369082647785992535e+01
6.770000000000175433e+00 2.332473384690313267e+01
6.790000000000175007e+00 2.362122283357912522e+01
6.810000000000174580e+00 2.329634342622785326e+01
6.830000000000174154e+00 2.332868092710152652e+01
6.850000000000173728e+00 2.294247642852316460e+01
6.870000000000173301e+00 2.279125031579448901e+01
6.890000000000172875e+00 2.301240635085333963e+01
6.910000000000172449e+00 2.281890881067483789e+01
6.930000000000172022e+00 2.258988552406592731e+01
6.950000000000171596e+00 2.267632545733270533e+01
6.970000000000171170e+00 2.254995150997727293e+01
6.990000000000170743e+00 2.256545661149034387e+01
7.010000000000170317e+00 2.229093674564208172e+01
7.030000000000169891e+00 2.222685860492726206e+01
7.050000000000169464e+00 2.190567663584335278e+01
7.070000000000169038e+00 2.215422024303809678e+01
7.090000000000168612e+00 2.199271357055767595e+01
7.110000000000168185e+00 2.175082652348698886e+01
7.130000000000167759e+00 2.177054817890083172e+01
7.150000000000167333e+00 2.193436492418357275e+01
7.170000000000166906e+00 2.182733761665525662e+01
7.190000000000166480e+00 2.163090054521576988e+01
7.210000000000166054e+00 2.148175564582636810e+01
7.230000000000165628e+00 2.147351332877680363e+01
7.250000000000165201e+00 2.121040446270043489e+01
7.270000000000164775e+00 2.116506131580460703e+01
7.290000000000164349e+00 2.129378774996331458e+01
7.310000000000163922e+00 2.098974338331059286e+01
7.330000000000163496e+00 2.110288181481237402e+01
7.350000000000163070e+00 2.122530220441804261e+01
7.370000000000162643e+00 2.096916747661889957e+01
7.390000000000162217e+00 2.094247195016234642e+01
7.410000000000161791e+00 2.081327685367573110e+01
7.430000000000161364e+00 2.069716533422974436e+01
7.450000000000160938e+00 2.072058161790809194e+01
7.470000000000160512e+00 2.056770463132889404e+01
7.490000000000160085e+00 2.072513689571928452e+01
7.510000000000159659e+00 2.038460829514662365e+01
7.530000000000159233e+00 2.045794409355710641e+01
7.550000000000158806e+00 2.031117037576185780e+01
7.570000000000158380e+00 2.044458434725599361e+01
7.590000000000157954e+00 2.028386257176589780e+01
7.610000000000157527e+00 2.042802288347710871e+01
7.630000000000157101e+00 2.028746178093904717e+01
7.650000000000156675e+00 2.029262166833101944e+01
7.670000000000156248e+00 1.998944107449597496e+01
7.690000000000155822e+00 2.010339642039549446e+01
7.710000000000155396e+00 2.012052871114429919e+01
7.730000000000154969e+00 1.988397041325727344e+01
7.750000000000154543e+00 1.994170897813582499e+01
7.770000000000154117e+00 1.997328479659239520e+01
7.790000000000153690e+00 1.985678978222177093e+01
7.810000000000153264e+00 1.985487340648117893e+01
7.830000000000152838e+00 1.982524907960175398e+01
7.850000000000152411e+00 1.967698319245621974e+01
7.870000000000151985e+00 1.973453266503717884e+01
7.890000000000151559e+00 1.959368742891442849e+01
7.910000000000151132e+00 1.971752491214711256e+01
7.930000000000150706e+00 1.961964722361629399e+01
7.950000000000150280e+00 1.950725214730983481e+01
7.970000000000149853e+00 1.939073163311670100e+01
