# Redshift		Merger Rate Density [Gpc^-3yr^-1]
1.000000000031931770e-02 5.086672357734749994e+01
3.000000000031888964e-02 5.353468088077218567e+01
5.000000000031846331e-02 5.593812990013343978e+01
7.000000000031804392e-02 5.883501170282012538e+01
9.000000000031761760e-02 6.148334762868847037e+01
1.100000000003171913e-01 6.417552354273274773e+01
1.300000000003167511e-01 6.721582670357567224e+01
1.500000000003163247e-01 7.011468506116335675e+01
1.700000000003158984e-01 7.309262610627963852e+01
1.900000000003154721e-01 7.606281107963447141e+01
2.100000000003150458e-01 7.919105127962295398e+01
2.300000000003146194e-01 8.244776631759762608e+01
2.500000000003141931e-01 8.574466600617650158e+01
2.700000000003137668e-01 8.909060880495619017e+01
2.900000000003133405e-01 9.263276623846269331e+01
3.100000000003129141e-01 9.588923810510900125e+01
3.300000000003124878e-01 9.960222569789901570e+01
3.500000000003120615e-01 1.034462149384124245e+02
3.700000000003116352e-01 1.069399774214051178e+02
3.900000000003112088e-01 1.108540730599019497e+02
4.100000000003107825e-01 1.145459184213908372e+02
4.300000000003103562e-01 1.186150545907006943e+02
4.500000000003099299e-01 1.224798507044665570e+02
4.700000000003095035e-01 1.266663861879801232e+02
4.900000000003090772e-01 1.309014347347541616e+02
5.100000000003086509e-01 1.348099993426736773e+02
5.300000000003082246e-01 1.391011442399654072e+02
5.500000000003077982e-01 1.437308498200654299e+02
5.700000000003073719e-01 1.477632614313856720e+02
5.900000000003069456e-01 1.523401095056109966e+02
6.100000000003065193e-01 1.568706589126561823e+02
6.300000000003060929e-01 1.614794634587898088e+02
6.500000000003056666e-01 1.659336376787932750e+02
6.700000000003052403e-01 1.703182981363285080e+02
6.900000000003048140e-01 1.749914559875949749e+02
7.100000000003043876e-01 1.798942563549494196e+02
7.300000000003039613e-01 1.847904448056134754e+02
7.500000000003035350e-01 1.893895157342839752e+02
7.700000000003031086e-01 1.948799933353816130e+02
7.900000000003026823e-01 1.996329890254369559e+02
8.100000000003022560e-01 2.045392469362745658e+02
8.300000000003018297e-01 2.091820126889479639e+02
8.500000000003014033e-01 2.141094920416136347e+02
8.700000000003009770e-01 2.190899101302293559e+02
8.900000000003005507e-01 2.242145050648909717e+02
9.100000000003001244e-01 2.289825470426498555e+02
9.300000000002996980e-01 2.349156962477928232e+02
9.500000000002992717e-01 2.393073864226522289e+02
9.700000000002988454e-01 2.451402220812761925e+02
9.900000000002984191e-01 2.501172743082609315e+02
1.010000000000297993e+00 2.546297292451219221e+02
1.030000000000297566e+00 2.599345261229755693e+02
1.050000000000297140e+00 2.658494571110558127e+02
1.070000000000296714e+00 2.708670370370616638e+02
1.090000000000296287e+00 2.756096254318735532e+02
1.110000000000295861e+00 2.809614690074010923e+02
1.130000000000295435e+00 2.859525528164602406e+02
1.150000000000295008e+00 2.909640848658667664e+02
1.170000000000294582e+00 2.958205311911834201e+02
1.190000000000294156e+00 3.005672818485872426e+02
1.210000000000293729e+00 3.055765168657143818e+02
1.230000000000293303e+00 3.094365165323688984e+02
1.250000000000292877e+00 3.149553208845375138e+02
1.270000000000292451e+00 3.194633260750691761e+02
1.290000000000292024e+00 3.250209152860373933e+02
1.310000000000291598e+00 3.281759118885336761e+02
1.330000000000291172e+00 3.343749985473580182e+02
1.350000000000290745e+00 3.373584581302396828e+02
1.370000000000290319e+00 3.420875586423565551e+02
1.390000000000289893e+00 3.463836373920808001e+02
1.410000000000289466e+00 3.502495972056002529e+02
1.430000000000289040e+00 3.540404257758025892e+02
1.450000000000288614e+00 3.584005293285114249e+02
1.470000000000288187e+00 3.615801427786497015e+02
1.490000000000287761e+00 3.650549650096471623e+02
1.510000000000287335e+00 3.679544284763631481e+02
1.530000000000286908e+00 3.728486696701264123e+02
1.550000000000286482e+00 3.762933018644418439e+02
1.570000000000286056e+00 3.783970552866172170e+02
1.590000000000285629e+00 3.813945124856958273e+02
1.610000000000285203e+00 3.842612259403927055e+02
1.630000000000284777e+00 3.867996693304151563e+02
1.650000000000284350e+00 3.905287459554515976e+02
1.670000000000283924e+00 3.922163579336469184e+02
1.690000000000283498e+00 3.938315243887532233e+02
1.710000000000283071e+00 3.965360304500572397e+02
1.730000000000282645e+00 3.975088506088499116e+02
1.750000000000282219e+00 3.992063292702828790e+02
1.770000000000281792e+00 4.014422961377259753e+02
1.790000000000281366e+00 4.011786975547032057e+02
1.810000000000280940e+00 4.026455380469145666e+02
1.830000000000280513e+00 4.021033699900947909e+02
1.850000000000280087e+00 4.025408902280311736e+02
1.870000000000279661e+00 4.034390903272345099e+02
1.890000000000279234e+00 4.040123705152284401e+02
1.910000000000278808e+00 4.038118641047477126e+02
1.930000000000278382e+00 4.042944716532456937e+02
1.950000000000277955e+00 4.066015790464535939e+02
1.970000000000277529e+00 4.049153467570810676e+02
1.990000000000277103e+00 4.031966840063709583e+02
2.010000000000276899e+00 4.027849013808500445e+02
2.030000000000276472e+00 4.027316915076534656e+02
2.050000000000276046e+00 4.015198717164043387e+02
2.070000000000275620e+00 4.003486916852024251e+02
2.090000000000275193e+00 3.981446949832797486e+02
2.110000000000274767e+00 3.968954242308921039e+02
2.130000000000274341e+00 3.964290916932740174e+02
2.150000000000273914e+00 3.938136839278297430e+02
2.170000000000273488e+00 3.928283115630802627e+02
2.190000000000273062e+00 3.892832764408413482e+02
2.210000000000272635e+00 3.870044422317207591e+02
2.230000000000272209e+00 3.836814101712481602e+02
2.250000000000271783e+00 3.799566428171133339e+02
2.270000000000271356e+00 3.782196470331512614e+02
2.290000000000270930e+00 3.749121344534310083e+02
2.310000000000270504e+00 3.718955657339928393e+02
2.330000000000270077e+00 3.670212394065461581e+02
2.350000000000269651e+00 3.617693072175120506e+02
2.370000000000269225e+00 3.600696675468835224e+02
2.390000000000268798e+00 3.542847701488639132e+02
2.410000000000268372e+00 3.515792947607039309e+02
2.430000000000267946e+00 3.469259463777012797e+02
2.450000000000267519e+00 3.419059282734543217e+02
2.470000000000267093e+00 3.384987068958907344e+02
2.490000000000266667e+00 3.331907882434966268e+02
2.510000000000266240e+00 3.298941647727336317e+02
2.530000000000265814e+00 3.265613094920381627e+02
2.550000000000265388e+00 3.221212193992744233e+02
2.570000000000264961e+00 3.176814864128825775e+02
2.590000000000264535e+00 3.138817134720526951e+02
2.610000000000264109e+00 3.097965621011724124e+02
2.630000000000263682e+00 3.061933085217275448e+02
2.650000000000263256e+00 3.021138915790746751e+02
2.670000000000262830e+00 2.980848791301373240e+02
2.690000000000262403e+00 2.943643418188726173e+02
2.710000000000261977e+00 2.912988110641968547e+02
2.730000000000261551e+00 2.867752633115705407e+02
2.750000000000261124e+00 2.837389170305406196e+02
2.770000000000260698e+00 2.796125644698211659e+02
2.790000000000260272e+00 2.761190580926696612e+02
2.810000000000259845e+00 2.723357604226206945e+02
2.830000000000259419e+00 2.684037902388340626e+02
2.850000000000258993e+00 2.652476852773449423e+02
2.870000000000258567e+00 2.605018680217858673e+02
2.890000000000258140e+00 2.573723175556779097e+02
2.910000000000257714e+00 2.538584883789552293e+02
2.930000000000257288e+00 2.503381974830356000e+02
2.950000000000256861e+00 2.458324965047186765e+02
2.970000000000256435e+00 2.435666427322166783e+02
2.990000000000256009e+00 2.397887197477351435e+02
3.010000000000255582e+00 2.371766359893881315e+02
3.030000000000255156e+00 2.330843933585929335e+02
3.050000000000254730e+00 2.295953320350024569e+02
3.070000000000254303e+00 2.262716472491117941e+02
3.090000000000253877e+00 2.229248192278822387e+02
3.110000000000253451e+00 2.193025156952919588e+02
3.130000000000253024e+00 2.160250124990934637e+02
3.150000000000252598e+00 2.132896393157826935e+02
3.170000000000252172e+00 2.101348481223608928e+02
3.190000000000251745e+00 2.065479773659090199e+02
3.210000000000251319e+00 2.037096775627577188e+02
3.230000000000250893e+00 2.011640186475424343e+02
3.250000000000250466e+00 1.982339858364960321e+02
3.270000000000250040e+00 1.944768895353469702e+02
3.290000000000249614e+00 1.916003989734896891e+02
3.310000000000249187e+00 1.883847230379251982e+02
3.330000000000248761e+00 1.855986541620868877e+02
3.350000000000248335e+00 1.831230924421351745e+02
3.370000000000247908e+00 1.799526491609439631e+02
3.390000000000247482e+00 1.767636900011596879e+02
3.410000000000247056e+00 1.739629851152772630e+02
3.430000000000246629e+00 1.714777705893641269e+02
3.450000000000246203e+00 1.685659738610875138e+02
3.470000000000245777e+00 1.661602845094211318e+02
3.490000000000245350e+00 1.635557274685440063e+02
3.510000000000244924e+00 1.607524067189698940e+02
3.530000000000244498e+00 1.582402872522617656e+02
3.550000000000244071e+00 1.558024060240325355e+02
3.570000000000243645e+00 1.529741019267845843e+02
3.590000000000243219e+00 1.517968433180148224e+02
3.610000000000242792e+00 1.494473063119603751e+02
3.630000000000242366e+00 1.471526654541271739e+02
3.650000000000241940e+00 1.445975274043863408e+02
3.670000000000241513e+00 1.426055364199311271e+02
3.690000000000241087e+00 1.396696789685580313e+02
3.710000000000240661e+00 1.379898100686413329e+02
3.730000000000240234e+00 1.352953182300160222e+02
3.750000000000239808e+00 1.338675841427108537e+02
3.770000000000239382e+00 1.315731806542214599e+02
3.790000000000238956e+00 1.290604665194123584e+02
3.810000000000238529e+00 1.274799646156027109e+02
3.830000000000238103e+00 1.251144377160467513e+02
3.850000000000237677e+00 1.239832730856008283e+02
3.870000000000237250e+00 1.208701965203551509e+02
3.890000000000236824e+00 1.193807739021343508e+02
3.910000000000236398e+00 1.178385326029639799e+02
3.930000000000235971e+00 1.159402894224771217e+02
3.950000000000235545e+00 1.149164646071526619e+02
3.970000000000235119e+00 1.119466103323883885e+02
3.990000000000234692e+00 1.098059804060678601e+02
4.010000000000234266e+00 1.083097155009989052e+02
4.030000000000233840e+00 1.069674862984139594e+02
4.050000000000233413e+00 1.048530896659185743e+02
4.070000000000232987e+00 1.029110770012896836e+02
4.090000000000232561e+00 1.019021137913520931e+02
4.110000000000232134e+00 1.003205143416843583e+02
4.130000000000231708e+00 9.861416637174887967e+01
4.150000000000231282e+00 9.667283449217835312e+01
4.170000000000230855e+00 9.520791086068682318e+01
4.190000000000230429e+00 9.438820088407869946e+01
4.210000000000230003e+00 9.284832081557865990e+01
4.230000000000229576e+00 9.095095266047287907e+01
4.250000000000229150e+00 9.005111497142752341e+01
4.270000000000228724e+00 8.805806400973698089e+01
4.290000000000228297e+00 8.690493405837682417e+01
4.310000000000227871e+00 8.547157710873464964e+01
4.330000000000227445e+00 8.455210625599649177e+01
4.350000000000227018e+00 8.287288587660945893e+01
4.370000000000226592e+00 8.185193994092418279e+01
4.390000000000226166e+00 8.050230299880999496e+01
4.410000000000225739e+00 7.924344723236836785e+01
4.430000000000225313e+00 7.806205106255951875e+01
4.450000000000224887e+00 7.678287448877058807e+01
4.470000000000224460e+00 7.592618244233047164e+01
4.490000000000224034e+00 7.466356737960626333e+01
4.510000000000223608e+00 7.362712538005594354e+01
4.530000000000223181e+00 7.258126771236474895e+01
4.550000000000222755e+00 7.110055257594943612e+01
4.570000000000222329e+00 7.032552208862971099e+01
4.590000000000221902e+00 6.931796053989208417e+01
4.610000000000221476e+00 6.843951763825191392e+01
4.630000000000221050e+00 6.787894608708973010e+01
4.650000000000220624e+00 6.697998730626399322e+01
4.670000000000220197e+00 6.583933024420707625e+01
4.690000000000219771e+00 6.492786604811875861e+01
4.710000000000219345e+00 6.365348716046990063e+01
4.730000000000218918e+00 6.305597330423763935e+01
4.750000000000218492e+00 6.214712634336544284e+01
4.770000000000218066e+00 6.141967287116620611e+01
4.790000000000217639e+00 6.045301394684891250e+01
4.810000000000217213e+00 5.913917728126031648e+01
4.830000000000216787e+00 5.875851256249351451e+01
4.850000000000216360e+00 5.783101915163012308e+01
4.870000000000215934e+00 5.708228558122920759e+01
4.890000000000215508e+00 5.639526157654957217e+01
4.910000000000215081e+00 5.567179457016916189e+01
4.930000000000214655e+00 5.500903441626324053e+01
4.950000000000214229e+00 5.419482789222425367e+01
4.970000000000213802e+00 5.348670417406970756e+01
4.990000000000213376e+00 5.250093008561786689e+01
5.010000000000212950e+00 5.199866958964061325e+01
5.030000000000212523e+00 5.129805270033631359e+01
5.050000000000212097e+00 5.038351818308359498e+01
5.070000000000211671e+00 5.001647998084750668e+01
5.090000000000211244e+00 4.906780375836654429e+01
5.110000000000210818e+00 4.848061884104505737e+01
5.130000000000210392e+00 4.764127144999349639e+01
5.150000000000209965e+00 4.714341192723338025e+01
5.170000000000209539e+00 4.621746035368429517e+01
5.190000000000209113e+00 4.575225147027382633e+01
5.210000000000208686e+00 4.523689671756851283e+01
5.230000000000208260e+00 4.446785994240755002e+01
5.250000000000207834e+00 4.396442681601093483e+01
5.270000000000207407e+00 4.353719648997763159e+01
5.290000000000206981e+00 4.279553121621865586e+01
5.310000000000206555e+00 4.200896765858963988e+01
5.330000000000206128e+00 4.169218903692452471e+01
5.350000000000205702e+00 4.094178367686790665e+01
5.370000000000205276e+00 4.071883597981657488e+01
5.390000000000204849e+00 4.003735596386239592e+01
5.410000000000204423e+00 3.942443852496035106e+01
5.430000000000203997e+00 3.897068915285391455e+01
5.450000000000203570e+00 3.881085965833787554e+01
5.470000000000203144e+00 3.823119792359796065e+01
5.490000000000202718e+00 3.763401891390250853e+01
5.510000000000202292e+00 3.727484564672227663e+01
5.530000000000201865e+00 3.678544921994107852e+01
5.550000000000201439e+00 3.624966270816560154e+01
5.570000000000201013e+00 3.590379750075869936e+01
5.590000000000200586e+00 3.539365184745923187e+01
5.610000000000200160e+00 3.485053909797473892e+01
5.630000000000199734e+00 3.453586467413336436e+01
5.650000000000199307e+00 3.394692962501161304e+01
5.670000000000198881e+00 3.364658434401465570e+01
5.690000000000198455e+00 3.327587308213104222e+01
5.710000000000198028e+00 3.275360027982037536e+01
5.730000000000197602e+00 3.239492014129708508e+01
5.750000000000197176e+00 3.237849711284912502e+01
5.770000000000196749e+00 3.154568659532004204e+01
5.790000000000196323e+00 3.126040476227364806e+01
5.810000000000195897e+00 3.085329377696075426e+01
5.830000000000195470e+00 3.025675036069400292e+01
5.850000000000195044e+00 2.992472129020228166e+01
5.870000000000194618e+00 2.979344929555300681e+01
5.890000000000194191e+00 2.932279425473563705e+01
5.910000000000193765e+00 2.896417607102234371e+01
5.930000000000193339e+00 2.872988675791282986e+01
5.950000000000192912e+00 2.833530287038932016e+01
5.970000000000192486e+00 2.792659715052991842e+01
5.990000000000192060e+00 2.759226973050969534e+01
6.010000000000191633e+00 2.706658918383077861e+01
6.030000000000191207e+00 2.688998615004949855e+01
6.050000000000190781e+00 2.652396863041773756e+01
6.070000000000190354e+00 2.629734935722194678e+01
6.090000000000189928e+00 2.585194973465528534e+01
6.110000000000189502e+00 2.591042085451981691e+01
6.130000000000189075e+00 2.554175803006446088e+01
6.150000000000188649e+00 2.541592714727387659e+01
6.170000000000188223e+00 2.487739604035183660e+01
6.190000000000187796e+00 2.465369576835654541e+01
6.210000000000187370e+00 2.437662785662482889e+01
6.230000000000186944e+00 2.401168540558852271e+01
6.250000000000186517e+00 2.369209378532557864e+01
6.270000000000186091e+00 2.341504680669965666e+01
6.290000000000185665e+00 2.303449519426750314e+01
6.310000000000185238e+00 2.288212152191361426e+01
6.330000000000184812e+00 2.254670480676405120e+01
6.350000000000184386e+00 2.222561353638328541e+01
6.370000000000183960e+00 2.207770872381068727e+01
6.390000000000183533e+00 2.182621437310984902e+01
6.410000000000183107e+00 2.141531063638512578e+01
6.430000000000182681e+00 2.137464104122664921e+01
6.450000000000182254e+00 2.117353817945350514e+01
6.470000000000181828e+00 2.074211353391060442e+01
6.490000000000181402e+00 2.067833860317943007e+01
6.510000000000180975e+00 2.053035044894852845e+01
6.530000000000180549e+00 2.014350172596618904e+01
6.550000000000180123e+00 1.992324999050505241e+01
6.570000000000179696e+00 1.968452210385774492e+01
6.590000000000179270e+00 1.950354326436493224e+01
6.610000000000178844e+00 1.936906535275039332e+01
6.630000000000178417e+00 1.905839856701313195e+01
6.650000000000177991e+00 1.882586945373506637e+01
6.670000000000177565e+00 1.873549861764309910e+01
6.690000000000177138e+00 1.855805076360528005e+01
6.710000000000176712e+00 1.809425794166188339e+01
6.730000000000176286e+00 1.815568920659172747e+01
6.750000000000175859e+00 1.769355968412539326e+01
6.770000000000175433e+00 1.761226036637296488e+01
6.790000000000175007e+00 1.733747059338601204e+01
6.810000000000174580e+00 1.726778776733717180e+01
6.830000000000174154e+00 1.704779231094632408e+01
6.850000000000173728e+00 1.684384185814684187e+01
6.870000000000173301e+00 1.668376058164815490e+01
6.890000000000172875e+00 1.637472273719694371e+01
6.910000000000172449e+00 1.617592831569417200e+01
6.930000000000172022e+00 1.612362884841789423e+01
6.950000000000171596e+00 1.599040632579981747e+01
6.970000000000171170e+00 1.574468154955173738e+01
6.990000000000170743e+00 1.551901298084067271e+01
7.010000000000170317e+00 1.533114743545410619e+01
7.030000000000169891e+00 1.537704475643386637e+01
7.050000000000169464e+00 1.522081006275301185e+01
7.070000000000169038e+00 1.502488676840591353e+01
7.090000000000168612e+00 1.476948497617038036e+01
7.110000000000168185e+00 1.452013689339049485e+01
7.130000000000167759e+00 1.442354728271249087e+01
7.150000000000167333e+00 1.429716811491298678e+01
7.170000000000166906e+00 1.408428692968954188e+01
7.190000000000166480e+00 1.393403215476573997e+01
7.210000000000166054e+00 1.377650397085889544e+01
7.230000000000165628e+00 1.371488236854431264e+01
7.250000000000165201e+00 1.353995679711422007e+01
7.270000000000164775e+00 1.340848963063480248e+01
7.290000000000164349e+00 1.315367928272730325e+01
7.310000000000163922e+00 1.306757356816668292e+01
7.330000000000163496e+00 1.291038520787155797e+01
7.350000000000163070e+00 1.266917137653180880e+01
7.370000000000162643e+00 1.257750929081767843e+01
7.390000000000162217e+00 1.236530225900996349e+01
7.410000000000161791e+00 1.247769382125203030e+01
7.430000000000161364e+00 1.224655783758971417e+01
7.450000000000160938e+00 1.216070631157259818e+01
7.470000000000160512e+00 1.213500581900540531e+01
7.490000000000160085e+00 1.189646792071843073e+01
7.510000000000159659e+00 1.173360072697187029e+01
7.530000000000159233e+00 1.158829150653826723e+01
7.550000000000158806e+00 1.151237313784894845e+01
7.570000000000158380e+00 1.121877303414471250e+01
7.590000000000157954e+00 1.125643979340141954e+01
7.610000000000157527e+00 1.107408806851614180e+01
7.630000000000157101e+00 1.091370759145938329e+01
7.650000000000156675e+00 1.084114116609634060e+01
7.670000000000156248e+00 1.071849124556702648e+01
7.690000000000155822e+00 1.058625317454723458e+01
7.710000000000155396e+00 1.044858518293303362e+01
7.730000000000154969e+00 1.039329480048465904e+01
7.750000000000154543e+00 1.038985829695123186e+01
7.770000000000154117e+00 1.012320383045040195e+01
7.790000000000153690e+00 9.982959728460169657e+00
7.810000000000153264e+00 9.898387513190352038e+00
7.830000000000152838e+00 9.841298969647620964e+00
7.850000000000152411e+00 9.700803091577347104e+00
7.870000000000151985e+00 9.531299534979606136e+00
7.890000000000151559e+00 9.528479576771578863e+00
7.910000000000151132e+00 9.397117304292869733e+00
7.930000000000150706e+00 9.321748253543004736e+00
7.950000000000150280e+00 9.206117435168515328e+00
7.970000000000149853e+00 9.068161581537768967e+00
