# Redshift		Merger Rate Density [Gpc^-3yr^-1]
1.000000000031931770e-02 2.064784958739400977e+01
3.000000000031888964e-02 2.153359370876995982e+01
5.000000000031846331e-02 2.242803629942366683e+01
7.000000000031804392e-02 2.328481930129183652e+01
9.000000000031761760e-02 2.436708983739313794e+01
1.100000000003171913e-01 2.526314426118711509e+01
1.300000000003167511e-01 2.628995520898894256e+01
1.500000000003163247e-01 2.740354495297241755e+01
1.700000000003158984e-01 2.843269684352518212e+01
1.900000000003154721e-01 2.956350603366463048e+01
2.100000000003150458e-01 3.072632652993021907e+01
2.300000000003146194e-01 3.200822659367040046e+01
2.500000000003141931e-01 3.309558477758076833e+01
2.700000000003137668e-01 3.453900600884099958e+01
2.900000000003133405e-01 3.576745666007907687e+01
3.100000000003129141e-01 3.679595678509998180e+01
3.300000000003124878e-01 3.832971123134631597e+01
3.500000000003120615e-01 3.967745736381664301e+01
3.700000000003116352e-01 4.127043790886499153e+01
3.900000000003112088e-01 4.254647987332376147e+01
4.100000000003107825e-01 4.406825173213782421e+01
4.300000000003103562e-01 4.569494396275199932e+01
4.500000000003099299e-01 4.703582497663303030e+01
4.700000000003095035e-01 4.871378217074823880e+01
4.900000000003090772e-01 5.011661162586052853e+01
5.100000000003086509e-01 5.173530134185216411e+01
5.300000000003082246e-01 5.346192298751959271e+01
5.500000000003077982e-01 5.516495723858903233e+01
5.700000000003073719e-01 5.665113409794178523e+01
5.900000000003069456e-01 5.816969730658470894e+01
6.100000000003065193e-01 6.017460292655724885e+01
6.300000000003060929e-01 6.148745458764037863e+01
6.500000000003056666e-01 6.345519410191198517e+01
6.700000000003052403e-01 6.508875251613534374e+01
6.900000000003048140e-01 6.679479256696593836e+01
7.100000000003043876e-01 6.889766998406182097e+01
7.300000000003039613e-01 7.045367675163151944e+01
7.500000000003035350e-01 7.224663481394900089e+01
7.700000000003031086e-01 7.374088204135938440e+01
7.900000000003026823e-01 7.587011545438137716e+01
8.100000000003022560e-01 7.753647676998527061e+01
8.300000000003018297e-01 7.927684148039539025e+01
8.500000000003014033e-01 8.139441365897347680e+01
8.700000000003009770e-01 8.287187363821908548e+01
8.900000000003005507e-01 8.467030832998564449e+01
9.100000000003001244e-01 8.680559442113931823e+01
9.300000000002996980e-01 8.835353999264336267e+01
9.500000000002992717e-01 9.032645414624327884e+01
9.700000000002988454e-01 9.190578382002266267e+01
9.900000000002984191e-01 9.439852349831780032e+01
1.010000000000297993e+00 9.588149804401309950e+01
1.030000000000297566e+00 9.769210804051027708e+01
1.050000000000297140e+00 9.991561517791878089e+01
1.070000000000296714e+00 1.013750940180980251e+02
1.090000000000296287e+00 1.031298435988565672e+02
1.110000000000295861e+00 1.053030045408218029e+02
1.130000000000295435e+00 1.074320764320880386e+02
1.150000000000295008e+00 1.090778235397589526e+02
1.170000000000294582e+00 1.106631093427792649e+02
1.190000000000294156e+00 1.126219606495461392e+02
1.210000000000293729e+00 1.148594401791062438e+02
1.230000000000293303e+00 1.164621150788996147e+02
1.250000000000292877e+00 1.174689632409080247e+02
1.270000000000292451e+00 1.193161122586158740e+02
1.290000000000292024e+00 1.209798835086434536e+02
1.310000000000291598e+00 1.225820307094478068e+02
1.330000000000291172e+00 1.245383985526031410e+02
1.350000000000290745e+00 1.262545422343171282e+02
1.370000000000290319e+00 1.274507409122579560e+02
1.390000000000289893e+00 1.293555428128327947e+02
1.410000000000289466e+00 1.306923606780016200e+02
1.430000000000289040e+00 1.323312463478642087e+02
1.450000000000288614e+00 1.335028916649135908e+02
1.470000000000288187e+00 1.350652895002774869e+02
1.490000000000287761e+00 1.361316266184104791e+02
1.510000000000287335e+00 1.373778850785052157e+02
1.530000000000286908e+00 1.386836522104460130e+02
1.550000000000286482e+00 1.400992642134449966e+02
1.570000000000286056e+00 1.405126041292488139e+02
1.590000000000285629e+00 1.417183050912052806e+02
1.610000000000285203e+00 1.432487548811982379e+02
1.630000000000284777e+00 1.436507183224144910e+02
1.650000000000284350e+00 1.442776839192804914e+02
1.670000000000283924e+00 1.457947712766149664e+02
1.690000000000283498e+00 1.474597032828640124e+02
1.710000000000283071e+00 1.479613086868093319e+02
1.730000000000282645e+00 1.477988359637638496e+02
1.750000000000282219e+00 1.483809647466564172e+02
1.770000000000281792e+00 1.495496426909846264e+02
1.790000000000281366e+00 1.502160640921690913e+02
1.810000000000280940e+00 1.500446952443818702e+02
1.830000000000280513e+00 1.503601650034198371e+02
1.850000000000280087e+00 1.490664641975950246e+02
1.870000000000279661e+00 1.516175369877013850e+02
1.890000000000279234e+00 1.517179180184493248e+02
1.910000000000278808e+00 1.502055800356070563e+02
1.930000000000278382e+00 1.489264683280443649e+02
1.950000000000277955e+00 1.492224558458733270e+02
1.970000000000277529e+00 1.489198142293561489e+02
1.990000000000277103e+00 1.486417785156257025e+02
2.010000000000276899e+00 1.480562547583720914e+02
2.030000000000276472e+00 1.473758384846507568e+02
2.050000000000276046e+00 1.464851056924814827e+02
2.070000000000275620e+00 1.461226514469112772e+02
2.090000000000275193e+00 1.453953811751200362e+02
2.110000000000274767e+00 1.440664254854294484e+02
2.130000000000274341e+00 1.430744411910363283e+02
2.150000000000273914e+00 1.430875693653334224e+02
2.170000000000273488e+00 1.422370442984447720e+02
2.190000000000273062e+00 1.412613025510027285e+02
2.210000000000272635e+00 1.399087764914838203e+02
2.230000000000272209e+00 1.390222770725932548e+02
2.250000000000271783e+00 1.379195084149370132e+02
2.270000000000271356e+00 1.371752467361393713e+02
2.290000000000270930e+00 1.366780267757268064e+02
2.310000000000270504e+00 1.362417879214592062e+02
2.330000000000270077e+00 1.342602709057412937e+02
2.350000000000269651e+00 1.332612765502979073e+02
2.370000000000269225e+00 1.317111224869561852e+02
2.390000000000268798e+00 1.309588320548331239e+02
2.410000000000268372e+00 1.298923537320768560e+02
2.430000000000267946e+00 1.282116923235922457e+02
2.450000000000267519e+00 1.271550295684482279e+02
2.470000000000267093e+00 1.251080202974951590e+02
2.490000000000266667e+00 1.244554974582810303e+02
2.510000000000266240e+00 1.236828611379124823e+02
2.530000000000265814e+00 1.221916674374556209e+02
2.550000000000265388e+00 1.215351827718273086e+02
2.570000000000264961e+00 1.192779110536067435e+02
2.590000000000264535e+00 1.186770567752269869e+02
2.610000000000264109e+00 1.167901733607550625e+02
2.630000000000263682e+00 1.153342779534013403e+02
2.650000000000263256e+00 1.140426574786174996e+02
2.670000000000262830e+00 1.128852834594368204e+02
2.690000000000262403e+00 1.112390338936401974e+02
2.710000000000261977e+00 1.090633800088102987e+02
2.730000000000261551e+00 1.078372033579775007e+02
2.750000000000261124e+00 1.067941600084525788e+02
2.770000000000260698e+00 1.053062358346518295e+02
2.790000000000260272e+00 1.038855189916601489e+02
2.810000000000259845e+00 1.017415964496655505e+02
2.830000000000259419e+00 1.010556081622490581e+02
2.850000000000258993e+00 9.952782032038125237e+01
2.870000000000258567e+00 9.782587058551776238e+01
2.890000000000258140e+00 9.629399091749063189e+01
2.910000000000257714e+00 9.574443535080375511e+01
2.930000000000257288e+00 9.419833807960878858e+01
2.950000000000256861e+00 9.230365517470005443e+01
2.970000000000256435e+00 9.155080342421776152e+01
2.990000000000256009e+00 8.997366436491320485e+01
3.010000000000255582e+00 8.859347576654164413e+01
3.030000000000255156e+00 8.778904498842207715e+01
3.050000000000254730e+00 8.600696659832811974e+01
3.070000000000254303e+00 8.510279983561085260e+01
3.090000000000253877e+00 8.366896069579055961e+01
3.110000000000253451e+00 8.272076726956467496e+01
3.130000000000253024e+00 8.150147156187921382e+01
3.150000000000252598e+00 8.031223499276326550e+01
3.170000000000252172e+00 7.922611979780893421e+01
3.190000000000251745e+00 7.808306146355580779e+01
3.210000000000251319e+00 7.746583858705081127e+01
3.230000000000250893e+00 7.683149866499941538e+01
3.250000000000250466e+00 7.581551529282506863e+01
3.270000000000250040e+00 7.476584557831526467e+01
3.290000000000249614e+00 7.285741449821858851e+01
3.310000000000249187e+00 7.212265769953076244e+01
3.330000000000248761e+00 7.027035309494996795e+01
3.350000000000248335e+00 7.016018374608486852e+01
3.370000000000247908e+00 6.921027005566027412e+01
3.390000000000247482e+00 6.735190580950056471e+01
3.410000000000247056e+00 6.667396353313444024e+01
3.430000000000246629e+00 6.550698025531957569e+01
3.450000000000246203e+00 6.474001207659014767e+01
3.470000000000245777e+00 6.345494980245645422e+01
3.490000000000245350e+00 6.259775068953430122e+01
3.510000000000244924e+00 6.222732292333344617e+01
3.530000000000244498e+00 6.089956162084725833e+01
3.550000000000244071e+00 5.977044504653672874e+01
3.570000000000243645e+00 5.874677643088809020e+01
3.590000000000243219e+00 5.773798464676151809e+01
3.610000000000242792e+00 5.709568165064852252e+01
3.630000000000242366e+00 5.656944365766770488e+01
3.650000000000241940e+00 5.524639471155406056e+01
3.670000000000241513e+00 5.454881140757838409e+01
3.690000000000241087e+00 5.377420998492011961e+01
3.710000000000240661e+00 5.306715829775516369e+01
3.730000000000240234e+00 5.214585604240414085e+01
3.750000000000239808e+00 5.156666102463239554e+01
3.770000000000239382e+00 5.036466453419859590e+01
3.790000000000238956e+00 4.958791842514848724e+01
3.810000000000238529e+00 4.911218156273940849e+01
3.830000000000238103e+00 4.837279590660548223e+01
3.850000000000237677e+00 4.725296478236677444e+01
3.870000000000237250e+00 4.660267431941203142e+01
3.890000000000236824e+00 4.598779521444706120e+01
3.910000000000236398e+00 4.528945104105279995e+01
3.930000000000235971e+00 4.449269952367372838e+01
3.950000000000235545e+00 4.427508556174684884e+01
3.970000000000235119e+00 4.348077188197313347e+01
3.990000000000234692e+00 4.289459501253418239e+01
4.010000000000234266e+00 4.214877817672096683e+01
4.030000000000233840e+00 4.149583572276304722e+01
4.050000000000233413e+00 4.081836196561710750e+01
4.070000000000232987e+00 4.034651808760737168e+01
4.090000000000232561e+00 3.984638597686859640e+01
4.110000000000232134e+00 3.939377224185736992e+01
4.130000000000231708e+00 3.867823183184758307e+01
4.150000000000231282e+00 3.846953498379188119e+01
4.170000000000230855e+00 3.805845910223875705e+01
4.190000000000230429e+00 3.763935055135245733e+01
4.210000000000230003e+00 3.768240493718553097e+01
4.230000000000229576e+00 3.671321803468394762e+01
4.250000000000229150e+00 3.605602615680506773e+01
4.270000000000228724e+00 3.526235045424219550e+01
4.290000000000228297e+00 3.513969591480971388e+01
4.310000000000227871e+00 3.407014838342642804e+01
4.330000000000227445e+00 3.375444868371188534e+01
4.350000000000227018e+00 3.345744625529217586e+01
4.370000000000226592e+00 3.289475027160094101e+01
4.390000000000226166e+00 3.225906059231596856e+01
4.410000000000225739e+00 3.187597538177029222e+01
4.430000000000225313e+00 3.175265914472673145e+01
4.450000000000224887e+00 3.125865670190268375e+01
4.470000000000224460e+00 3.068059852167460022e+01
4.490000000000224034e+00 3.026813457551137532e+01
4.510000000000223608e+00 2.986389430640303999e+01
4.530000000000223181e+00 2.973647697514116217e+01
4.550000000000222755e+00 2.896778293479113486e+01
4.570000000000222329e+00 2.854762812354297097e+01
4.590000000000221902e+00 2.809582324228869865e+01
4.610000000000221476e+00 2.771980080230541077e+01
4.630000000000221050e+00 2.714428921264528327e+01
4.650000000000220624e+00 2.689424979030233231e+01
4.670000000000220197e+00 2.694832061118420796e+01
4.690000000000219771e+00 2.620150249121697783e+01
4.710000000000219345e+00 2.605844104222886415e+01
4.730000000000218918e+00 2.550117268916040203e+01
4.750000000000218492e+00 2.525412678452919835e+01
4.770000000000218066e+00 2.476553385852812283e+01
4.790000000000217639e+00 2.447099933079951839e+01
4.810000000000217213e+00 2.425716923687832960e+01
4.830000000000216787e+00 2.398733744204814045e+01
4.850000000000216360e+00 2.350630808304239494e+01
4.870000000000215934e+00 2.298972022911673463e+01
4.890000000000215508e+00 2.291859249812045007e+01
4.910000000000215081e+00 2.251028565065284326e+01
4.930000000000214655e+00 2.243539653052964766e+01
4.950000000000214229e+00 2.231407636681583995e+01
4.970000000000213802e+00 2.195452846461745011e+01
4.990000000000213376e+00 2.172955107895056770e+01
5.010000000000212950e+00 2.115436174135397351e+01
5.030000000000212523e+00 2.074000117399971899e+01
5.050000000000212097e+00 2.067752656880568196e+01
5.070000000000211671e+00 2.016745755342114421e+01
5.090000000000211244e+00 1.994642647083750830e+01
5.110000000000210818e+00 1.974971441732052213e+01
5.130000000000210392e+00 1.940220769591639538e+01
5.150000000000209965e+00 1.909890573947293646e+01
5.170000000000209539e+00 1.891402609003660018e+01
5.190000000000209113e+00 1.870053091472757956e+01
5.210000000000208686e+00 1.839770786681981463e+01
5.230000000000208260e+00 1.831568596626073742e+01
5.250000000000207834e+00 1.800173262433976618e+01
5.270000000000207407e+00 1.774294538657622411e+01
5.290000000000206981e+00 1.750694608121126095e+01
5.310000000000206555e+00 1.732897227288619746e+01
5.330000000000206128e+00 1.705676975898846948e+01
5.350000000000205702e+00 1.693018104413742719e+01
5.370000000000205276e+00 1.643216166923606991e+01
5.390000000000204849e+00 1.635674761940896715e+01
5.410000000000204423e+00 1.598314734939823722e+01
5.430000000000203997e+00 1.581299945515646677e+01
5.450000000000203570e+00 1.561401984462096770e+01
5.470000000000203144e+00 1.536231752490050795e+01
5.490000000000202718e+00 1.530181289350835705e+01
5.510000000000202292e+00 1.515858846021973250e+01
5.530000000000201865e+00 1.472964075539780815e+01
5.550000000000201439e+00 1.473340131712687828e+01
5.570000000000201013e+00 1.466694151180220196e+01
5.590000000000200586e+00 1.461579013556850981e+01
5.610000000000200160e+00 1.422082678938431499e+01
5.630000000000199734e+00 1.399442573722676642e+01
5.650000000000199307e+00 1.375299210438411812e+01
5.670000000000198881e+00 1.355640295001516904e+01
5.690000000000198455e+00 1.339308467330306307e+01
5.710000000000198028e+00 1.293484214458032433e+01
5.730000000000197602e+00 1.272670729791210142e+01
5.750000000000197176e+00 1.276543293632558118e+01
5.770000000000196749e+00 1.262487996181909367e+01
5.790000000000196323e+00 1.245976132872795361e+01
5.810000000000195897e+00 1.206214563900085501e+01
5.830000000000195470e+00 1.201429249086492135e+01
5.850000000000195044e+00 1.180883470959293469e+01
5.870000000000194618e+00 1.176612270147436590e+01
5.890000000000194191e+00 1.165747326229291936e+01
5.910000000000193765e+00 1.134935397996377837e+01
5.930000000000193339e+00 1.104384821140545014e+01
5.950000000000192912e+00 1.113172679202827986e+01
5.970000000000192486e+00 1.077460203106022441e+01
5.990000000000192060e+00 1.088385535732859388e+01
6.010000000000191633e+00 1.051467097049690480e+01
6.030000000000191207e+00 1.039790583200497309e+01
6.050000000000190781e+00 1.031944048359798316e+01
6.070000000000190354e+00 1.010281344130126513e+01
6.090000000000189928e+00 1.001976187894447712e+01
6.110000000000189502e+00 9.824462170637866976e+00
6.130000000000189075e+00 9.912461325516154886e+00
6.150000000000188649e+00 9.746805476714438754e+00
6.170000000000188223e+00 9.592419083773334521e+00
6.190000000000187796e+00 9.426657166883309458e+00
6.210000000000187370e+00 9.188013510638501913e+00
6.230000000000186944e+00 8.970354120978958790e+00
6.250000000000186517e+00 9.029439160943955045e+00
6.270000000000186091e+00 8.731727878225340689e+00
6.290000000000185665e+00 8.527837400229222098e+00
6.310000000000185238e+00 8.638839452753181547e+00
6.330000000000184812e+00 8.356376423226089756e+00
6.350000000000184386e+00 8.350252788496591805e+00
6.370000000000183960e+00 8.108045769080804988e+00
6.390000000000183533e+00 7.929694918733466658e+00
6.410000000000183107e+00 7.855494365733702189e+00
6.430000000000182681e+00 7.846016326856479317e+00
6.450000000000182254e+00 7.840981583438141556e+00
6.470000000000181828e+00 7.650380848673830059e+00
6.490000000000181402e+00 7.400265892566689985e+00
6.510000000000180975e+00 7.223226659697990826e+00
6.530000000000180549e+00 7.242480701344965688e+00
6.550000000000180123e+00 7.057890117974151778e+00
6.570000000000179696e+00 7.028457337225764157e+00
6.590000000000179270e+00 6.900219386397694166e+00
6.610000000000178844e+00 6.809657418865077361e+00
6.630000000000178417e+00 6.778911078394546763e+00
6.650000000000177991e+00 6.565421023466192274e+00
6.670000000000177565e+00 6.574021578654978271e+00
6.690000000000177138e+00 6.394907804269346130e+00
6.710000000000176712e+00 6.252910822873210428e+00
6.730000000000176286e+00 6.185513370069446459e+00
6.750000000000175859e+00 5.989519017970794224e+00
6.770000000000175433e+00 5.930015258179829551e+00
6.790000000000175007e+00 5.861453251445251311e+00
6.810000000000174580e+00 5.695010903796401180e+00
6.830000000000174154e+00 5.708028819776935769e+00
6.850000000000173728e+00 5.655724155745960324e+00
6.870000000000173301e+00 5.514194119720807308e+00
6.890000000000172875e+00 5.404765272610635662e+00
6.910000000000172449e+00 5.404761240633931152e+00
6.930000000000172022e+00 5.349255108988181462e+00
6.950000000000171596e+00 5.341930481307184841e+00
6.970000000000171170e+00 5.279195713624726949e+00
6.990000000000170743e+00 5.055483224478227733e+00
7.010000000000170317e+00 4.952057683144526656e+00
7.030000000000169891e+00 4.837790228423087591e+00
7.050000000000169464e+00 4.797350068271756030e+00
7.070000000000169038e+00 4.839577814211910578e+00
7.090000000000168612e+00 4.637930931136693857e+00
7.110000000000168185e+00 4.596206815456899797e+00
7.130000000000167759e+00 4.493779404535685806e+00
7.150000000000167333e+00 4.345154688233405338e+00
7.170000000000166906e+00 4.308010429483040582e+00
7.190000000000166480e+00 4.257282663526370747e+00
7.210000000000166054e+00 4.124094590311220720e+00
7.230000000000165628e+00 4.044675020488186945e+00
7.250000000000165201e+00 4.024348457797612078e+00
7.270000000000164775e+00 3.982618630680452299e+00
7.290000000000164349e+00 3.902799659295877355e+00
7.310000000000163922e+00 3.852265251915913957e+00
7.330000000000163496e+00 3.736687922881257062e+00
7.350000000000163070e+00 3.674808181817965202e+00
7.370000000000162643e+00 3.680807506634069970e+00
7.390000000000162217e+00 3.668266317534480958e+00
7.410000000000161791e+00 3.607085875933743413e+00
7.430000000000161364e+00 3.630605628185566758e+00
7.450000000000160938e+00 3.566381306816792662e+00
7.470000000000160512e+00 3.388886825956956894e+00
7.490000000000160085e+00 3.313068601385928957e+00
7.510000000000159659e+00 3.238053577532495009e+00
7.530000000000159233e+00 3.237512292170024786e+00
7.550000000000158806e+00 3.146865357771960081e+00
7.570000000000158380e+00 3.086885317075624968e+00
7.590000000000157954e+00 3.008830237644978034e+00
7.610000000000157527e+00 2.963752902450324633e+00
7.630000000000157101e+00 2.953058881275071546e+00
7.650000000000156675e+00 2.850835552312370069e+00
7.670000000000156248e+00 2.771036161340119097e+00
7.690000000000155822e+00 2.768542082242297031e+00
7.710000000000155396e+00 2.703087717741808671e+00
7.730000000000154969e+00 2.673648909787482708e+00
7.750000000000154543e+00 2.661500880355030407e+00
7.770000000000154117e+00 2.584195529443666928e+00
7.790000000000153690e+00 2.552065015761928457e+00
7.810000000000153264e+00 2.554369726607051305e+00
7.830000000000152838e+00 2.485807441891346503e+00
7.850000000000152411e+00 2.524162569379874377e+00
7.870000000000151985e+00 2.454921073488428362e+00
7.890000000000151559e+00 2.347404738282226955e+00
7.910000000000151132e+00 2.307172199943553270e+00
7.930000000000150706e+00 2.244487800930776267e+00
7.950000000000150280e+00 2.224403314552481525e+00
7.970000000000149853e+00 2.133613373513981504e+00
