# Redshift		Merger Rate Density [Gpc^-3yr^-1]
1.000000000031931770e-02 1.684408869906857831e+02
3.000000000031888964e-02 1.774643978142846663e+02
5.000000000031846331e-02 1.843494498265254720e+02
7.000000000031804392e-02 1.938957236649914080e+02
9.000000000031761760e-02 2.008528263971107322e+02
1.100000000003171913e-01 2.089835711627019066e+02
1.300000000003167511e-01 2.190408551504888806e+02
1.500000000003163247e-01 2.272560146213967869e+02
1.700000000003158984e-01 2.345123841508826956e+02
1.900000000003154721e-01 2.446319388636509302e+02
2.100000000003150458e-01 2.541111283715150080e+02
2.300000000003146194e-01 2.629339979880376745e+02
2.500000000003141931e-01 2.740250075046852203e+02
2.700000000003137668e-01 2.828680302974619849e+02
2.900000000003133405e-01 2.933465743821415117e+02
3.100000000003129141e-01 3.040363223619211794e+02
3.300000000003124878e-01 3.135435998640119806e+02
3.500000000003120615e-01 3.246206539630204588e+02
3.700000000003116352e-01 3.355559577928530075e+02
3.900000000003112088e-01 3.459373109682028371e+02
4.100000000003107825e-01 3.571688819674344018e+02
4.300000000003103562e-01 3.674118852933799531e+02
4.500000000003099299e-01 3.795405951832777305e+02
4.700000000003095035e-01 3.928329885688106629e+02
4.900000000003090772e-01 4.000102809660368735e+02
5.100000000003086509e-01 4.145460531668415456e+02
5.300000000003082246e-01 4.250647253962287095e+02
5.500000000003077982e-01 4.385562709998320656e+02
5.700000000003073719e-01 4.495021607038485740e+02
5.900000000003069456e-01 4.591894339952314112e+02
6.100000000003065193e-01 4.733161668808864988e+02
6.300000000003060929e-01 4.822087791351190162e+02
6.500000000003056666e-01 4.967456431288094905e+02
6.700000000003052403e-01 5.072765914924946173e+02
6.900000000003048140e-01 5.198208057614335758e+02
7.100000000003043876e-01 5.330443793988788457e+02
7.300000000003039613e-01 5.440528535639241454e+02
7.500000000003035350e-01 5.557134726286139994e+02
7.700000000003031086e-01 5.668417660098431270e+02
7.900000000003026823e-01 5.787480106504988271e+02
8.100000000003022560e-01 5.898211429192234618e+02
8.300000000003018297e-01 6.001239647862421407e+02
8.500000000003014033e-01 6.154481784003110079e+02
8.700000000003009770e-01 6.219530667787855691e+02
8.900000000003005507e-01 6.389176449259933861e+02
9.100000000003001244e-01 6.444983946882670125e+02
9.300000000002996980e-01 6.565571193445366589e+02
9.500000000002992717e-01 6.689985666214611228e+02
9.700000000002988454e-01 6.776883304507509820e+02
9.900000000002984191e-01 6.887251932924070843e+02
1.010000000000297993e+00 6.955355885721761524e+02
1.030000000000297566e+00 7.068969768744500470e+02
1.050000000000297140e+00 7.158856003915562951e+02
1.070000000000296714e+00 7.270322582114539500e+02
1.090000000000296287e+00 7.348118790233093023e+02
1.110000000000295861e+00 7.462024554095946769e+02
1.130000000000295435e+00 7.482820919571529430e+02
1.150000000000295008e+00 7.585950750154730713e+02
1.170000000000294582e+00 7.661335372347881503e+02
1.190000000000294156e+00 7.737212794504719113e+02
1.210000000000293729e+00 7.823693138771843678e+02
1.230000000000293303e+00 7.872771697115313145e+02
1.250000000000292877e+00 7.927696418016251982e+02
1.270000000000292451e+00 8.039702624920313383e+02
1.290000000000292024e+00 8.011908714530189854e+02
1.310000000000291598e+00 8.085311151589180554e+02
1.330000000000291172e+00 8.185022130181514513e+02
1.350000000000290745e+00 8.176058185684740920e+02
1.370000000000290319e+00 8.272531322158412195e+02
1.390000000000289893e+00 8.258836848877817829e+02
1.410000000000289466e+00 8.312163774330824708e+02
1.430000000000289040e+00 8.334789146188365976e+02
1.450000000000288614e+00 8.367226366308174192e+02
1.470000000000288187e+00 8.412749530707618533e+02
1.490000000000287761e+00 8.421545683426627420e+02
1.510000000000287335e+00 8.440461378246783397e+02
1.530000000000286908e+00 8.437518865075969643e+02
1.550000000000286482e+00 8.469996210635297302e+02
1.570000000000286056e+00 8.442134182902686916e+02
1.590000000000285629e+00 8.456229961783543558e+02
1.610000000000285203e+00 8.473018225962828183e+02
1.630000000000284777e+00 8.413976433733146223e+02
1.650000000000284350e+00 8.487306192426033249e+02
1.670000000000283924e+00 8.405545825242835463e+02
1.690000000000283498e+00 8.399869633644490250e+02
1.710000000000283071e+00 8.454031586271705692e+02
1.730000000000282645e+00 8.371637826493216608e+02
1.750000000000282219e+00 8.382443695312795171e+02
1.770000000000281792e+00 8.296132938631385514e+02
1.790000000000281366e+00 8.290672259593890203e+02
1.810000000000280940e+00 8.255552150671235268e+02
1.830000000000280513e+00 8.206103868572672582e+02
1.850000000000280087e+00 8.202262271741141149e+02
1.870000000000279661e+00 8.130740024527053720e+02
1.890000000000279234e+00 8.087552721512009839e+02
1.910000000000278808e+00 8.005771671156243201e+02
1.930000000000278382e+00 7.969310327741859510e+02
1.950000000000277955e+00 7.941782965386793194e+02
1.970000000000277529e+00 7.844290700990786718e+02
1.990000000000277103e+00 7.807521992852817903e+02
2.010000000000276899e+00 7.732430558276034844e+02
2.030000000000276472e+00 7.678771564247972492e+02
2.050000000000276046e+00 7.637668710062336004e+02
2.070000000000275620e+00 7.522141743204896329e+02
2.090000000000275193e+00 7.461782713832161562e+02
2.110000000000274767e+00 7.401991131840967455e+02
2.130000000000274341e+00 7.346901515185962808e+02
2.150000000000273914e+00 7.244310258047804609e+02
2.170000000000273488e+00 7.184126288377615310e+02
2.190000000000273062e+00 7.098958156772541770e+02
2.210000000000272635e+00 7.043286602427908747e+02
2.230000000000272209e+00 6.956370766815255138e+02
2.250000000000271783e+00 6.863725610494300327e+02
2.270000000000271356e+00 6.786870332785109667e+02
2.290000000000270930e+00 6.717709672860751198e+02
2.310000000000270504e+00 6.633466475665106827e+02
2.330000000000270077e+00 6.534501606737421753e+02
2.350000000000269651e+00 6.484507356132356790e+02
2.370000000000269225e+00 6.401644782969605103e+02
2.390000000000268798e+00 6.307579821987302466e+02
2.410000000000268372e+00 6.223077600708779755e+02
2.430000000000267946e+00 6.160281489694272068e+02
2.450000000000267519e+00 6.078429027424601827e+02
2.470000000000267093e+00 5.963087949700355921e+02
2.490000000000266667e+00 5.879193135947152768e+02
2.510000000000266240e+00 5.832162234829480667e+02
2.530000000000265814e+00 5.727962053577164170e+02
2.550000000000265388e+00 5.678515573887966639e+02
2.570000000000264961e+00 5.580371278809415116e+02
2.590000000000264535e+00 5.494089778928735086e+02
2.610000000000264109e+00 5.404860881632387191e+02
2.630000000000263682e+00 5.352521287025765560e+02
2.650000000000263256e+00 5.258512308199263998e+02
2.670000000000262830e+00 5.184131230526488707e+02
2.690000000000262403e+00 5.115053422595032657e+02
2.710000000000261977e+00 5.014884318030864847e+02
2.730000000000261551e+00 4.954884463976524103e+02
2.750000000000261124e+00 4.879870072908436214e+02
2.770000000000260698e+00 4.797471017034823717e+02
2.790000000000260272e+00 4.731893731925470092e+02
2.810000000000259845e+00 4.650302675710035487e+02
2.830000000000259419e+00 4.593976423296372786e+02
2.850000000000258993e+00 4.531968342186356722e+02
2.870000000000258567e+00 4.446760082651500738e+02
2.890000000000258140e+00 4.382131940773725773e+02
2.910000000000257714e+00 4.313232315904807592e+02
2.930000000000257288e+00 4.256441653513330721e+02
2.950000000000256861e+00 4.174474193202739798e+02
2.970000000000256435e+00 4.108447077123245776e+02
2.990000000000256009e+00 4.033574866988735721e+02
3.010000000000255582e+00 3.986890075841045018e+02
3.030000000000255156e+00 3.937433716976696019e+02
3.050000000000254730e+00 3.869630569543593310e+02
3.070000000000254303e+00 3.794913343006217588e+02
3.090000000000253877e+00 3.736096742689969119e+02
3.110000000000253451e+00 3.671737067545296895e+02
3.130000000000253024e+00 3.610026863950648135e+02
3.150000000000252598e+00 3.570225687131143673e+02
3.170000000000252172e+00 3.507498492167279664e+02
3.190000000000251745e+00 3.446413688635627750e+02
3.210000000000251319e+00 3.394417585801909354e+02
3.230000000000250893e+00 3.348655062861550959e+02
3.250000000000250466e+00 3.286625840417127051e+02
3.270000000000250040e+00 3.231386748677234095e+02
3.290000000000249614e+00 3.182971933849025277e+02
3.310000000000249187e+00 3.125585737866745717e+02
3.330000000000248761e+00 3.099618605343881654e+02
3.350000000000248335e+00 3.028924108129216393e+02
3.370000000000247908e+00 2.997731694832451126e+02
3.390000000000247482e+00 2.927180087005626206e+02
3.410000000000247056e+00 2.892303535258648139e+02
3.430000000000246629e+00 2.841478845511899181e+02
3.450000000000246203e+00 2.810440643889169223e+02
3.470000000000245777e+00 2.758729201319966933e+02
3.490000000000245350e+00 2.704676666586952365e+02
3.510000000000244924e+00 2.661143568364828980e+02
3.530000000000244498e+00 2.637362709425810863e+02
3.550000000000244071e+00 2.592750430468806258e+02
3.570000000000243645e+00 2.543793536202592236e+02
3.590000000000243219e+00 2.510133619985617770e+02
3.610000000000242792e+00 2.474124184014863204e+02
3.630000000000242366e+00 2.432913927042116313e+02
3.650000000000241940e+00 2.390927001261397891e+02
3.670000000000241513e+00 2.353293684361661917e+02
3.690000000000241087e+00 2.324943423516531311e+02
3.710000000000240661e+00 2.288262237527592333e+02
3.730000000000240234e+00 2.246867370132633823e+02
3.750000000000239808e+00 2.215411280887123269e+02
3.770000000000239382e+00 2.185252333615786142e+02
3.790000000000238956e+00 2.139303565601534842e+02
3.810000000000238529e+00 2.118576490603795435e+02
3.830000000000238103e+00 2.090910586753717553e+02
3.850000000000237677e+00 2.050903649842037169e+02
3.870000000000237250e+00 2.026015731145446637e+02
3.890000000000236824e+00 1.996749738670968668e+02
3.910000000000236398e+00 1.971579949897693211e+02
3.930000000000235971e+00 1.931663131846592592e+02
3.950000000000235545e+00 1.910341380442004606e+02
3.970000000000235119e+00 1.884930883963401698e+02
3.990000000000234692e+00 1.865431620168322695e+02
4.010000000000234266e+00 1.823235315996328723e+02
4.030000000000233840e+00 1.806694275485398009e+02
4.050000000000233413e+00 1.788447680464616383e+02
4.070000000000232987e+00 1.748385655176171838e+02
4.090000000000232561e+00 1.736518611917624924e+02
4.110000000000232134e+00 1.704925478772424867e+02
4.130000000000231708e+00 1.690430049313514758e+02
4.150000000000231282e+00 1.666841333860466250e+02
4.170000000000230855e+00 1.640699607253392855e+02
4.190000000000230429e+00 1.620860628071980329e+02
4.210000000000230003e+00 1.589461899547725352e+02
4.230000000000229576e+00 1.577735312093458901e+02
4.250000000000229150e+00 1.548833844855713266e+02
4.270000000000228724e+00 1.537988327167353759e+02
4.290000000000228297e+00 1.509729775068809658e+02
4.310000000000227871e+00 1.493718048206762887e+02
4.330000000000227445e+00 1.470423524706390879e+02
4.350000000000227018e+00 1.452996896465062093e+02
4.370000000000226592e+00 1.439839622261385728e+02
4.390000000000226166e+00 1.417614308103811425e+02
4.410000000000225739e+00 1.403059605473571594e+02
4.430000000000225313e+00 1.386658532080260500e+02
4.450000000000224887e+00 1.368823625591434165e+02
4.470000000000224460e+00 1.348744045068450248e+02
4.490000000000224034e+00 1.335148750250226328e+02
4.510000000000223608e+00 1.317417376302934997e+02
4.530000000000223181e+00 1.298866655289242544e+02
4.550000000000222755e+00 1.286339595953143657e+02
4.570000000000222329e+00 1.270611501234837846e+02
4.590000000000221902e+00 1.262636974269308467e+02
4.610000000000221476e+00 1.241669820748659987e+02
4.630000000000221050e+00 1.233962705681926906e+02
4.650000000000220624e+00 1.211883185255409785e+02
4.670000000000220197e+00 1.198789175273661556e+02
4.690000000000219771e+00 1.188633914202405606e+02
4.710000000000219345e+00 1.170253932984365690e+02
4.730000000000218918e+00 1.157885578808428590e+02
4.750000000000218492e+00 1.145542844704088594e+02
4.770000000000218066e+00 1.128570456890165445e+02
4.790000000000217639e+00 1.121037535241552945e+02
4.810000000000217213e+00 1.107341713343864456e+02
4.830000000000216787e+00 1.095359783103710640e+02
4.850000000000216360e+00 1.085569530342314550e+02
4.870000000000215934e+00 1.073864021963573521e+02
4.890000000000215508e+00 1.059673530295604991e+02
4.910000000000215081e+00 1.050620213319678555e+02
4.930000000000214655e+00 1.038539823044929875e+02
4.950000000000214229e+00 1.027493525786582325e+02
4.970000000000213802e+00 1.020124520851910859e+02
4.990000000000213376e+00 1.011845532052376200e+02
5.010000000000212950e+00 9.966265190807300201e+01
5.030000000000212523e+00 9.911944993746161003e+01
5.050000000000212097e+00 9.830248379485743726e+01
5.070000000000211671e+00 9.640540297263325442e+01
5.090000000000211244e+00 9.643698576853526561e+01
5.110000000000210818e+00 9.525543003059605951e+01
5.130000000000210392e+00 9.407178091532064457e+01
5.150000000000209965e+00 9.339871357080474468e+01
5.170000000000209539e+00 9.280116806230905979e+01
5.190000000000209113e+00 9.175467187141343572e+01
5.210000000000208686e+00 9.079920507428299459e+01
5.230000000000208260e+00 9.032834344757173994e+01
5.250000000000207834e+00 8.884495283436304192e+01
5.270000000000207407e+00 8.870918751740342145e+01
5.290000000000206981e+00 8.752388821338313107e+01
5.310000000000206555e+00 8.694233439943567987e+01
5.330000000000206128e+00 8.690291360857857228e+01
5.350000000000205702e+00 8.591746116171631797e+01
5.370000000000205276e+00 8.468751095816224961e+01
5.390000000000204849e+00 8.439458441738682382e+01
5.410000000000204423e+00 8.367780715717961471e+01
5.430000000000203997e+00 8.345590620760543743e+01
5.450000000000203570e+00 8.263671399832708175e+01
5.470000000000203144e+00 8.198170589594111846e+01
5.490000000000202718e+00 8.105903143479797279e+01
5.510000000000202292e+00 8.063010135369378872e+01
5.530000000000201865e+00 8.035303098944561384e+01
5.550000000000201439e+00 7.944630301919460180e+01
5.570000000000201013e+00 7.826875078759560722e+01
5.590000000000200586e+00 7.811305985438082189e+01
5.610000000000200160e+00 7.781279257349217460e+01
5.630000000000199734e+00 7.683439537640555272e+01
5.650000000000199307e+00 7.624764814881712027e+01
5.670000000000198881e+00 7.613366987855700074e+01
5.690000000000198455e+00 7.532383813105215609e+01
5.710000000000198028e+00 7.483447171245649088e+01
5.730000000000197602e+00 7.428288051689337124e+01
5.750000000000197176e+00 7.387548930654381252e+01
5.770000000000196749e+00 7.342386437576973890e+01
5.790000000000196323e+00 7.289452967213611601e+01
5.810000000000195897e+00 7.240365491462108594e+01
5.830000000000195470e+00 7.196946974144051978e+01
5.850000000000195044e+00 7.157449587057480755e+01
5.870000000000194618e+00 7.147468614604751735e+01
5.890000000000194191e+00 7.062548789638773883e+01
5.910000000000193765e+00 7.048529264309519249e+01
5.930000000000193339e+00 7.025108412708630112e+01
5.950000000000192912e+00 6.965509703629622607e+01
5.970000000000192486e+00 6.947369387182853018e+01
5.990000000000192060e+00 6.921731873951002001e+01
6.010000000000191633e+00 6.886223310358346339e+01
6.030000000000191207e+00 6.858709623587591864e+01
6.050000000000190781e+00 6.797776088780081238e+01
6.070000000000190354e+00 6.794236669280250851e+01
6.090000000000189928e+00 6.746430026920893397e+01
6.110000000000189502e+00 6.723117276809452392e+01
6.130000000000189075e+00 6.706364127582051538e+01
6.150000000000188649e+00 6.668184420204116236e+01
6.170000000000188223e+00 6.612819815969132264e+01
6.190000000000187796e+00 6.587408140315191929e+01
6.210000000000187370e+00 6.562523086855398446e+01
6.230000000000186944e+00 6.532026169028270601e+01
6.250000000000186517e+00 6.519289194371980045e+01
6.270000000000186091e+00 6.462310951640496626e+01
6.290000000000185665e+00 6.426465476526497866e+01
6.310000000000185238e+00 6.416048627593966103e+01
6.330000000000184812e+00 6.374718911945991096e+01
6.350000000000184386e+00 6.378775282517865008e+01
6.370000000000183960e+00 6.347766108404588437e+01
6.390000000000183533e+00 6.315403868430028922e+01
6.410000000000183107e+00 6.299175887606163116e+01
6.430000000000182681e+00 6.270794571524773175e+01
6.450000000000182254e+00 6.289922696261228907e+01
6.470000000000181828e+00 6.218016417765463189e+01
6.490000000000181402e+00 6.211459379311758511e+01
6.510000000000180975e+00 6.194526335212670176e+01
6.530000000000180549e+00 6.232629525695809747e+01
6.550000000000180123e+00 6.164693553924919200e+01
6.570000000000179696e+00 6.161731512130332789e+01
6.590000000000179270e+00 6.134839112521860471e+01
6.610000000000178844e+00 6.103738634331149626e+01
6.630000000000178417e+00 6.110215026226415347e+01
6.650000000000177991e+00 6.105999334896755215e+01
6.670000000000177565e+00 6.057973687047942946e+01
6.690000000000177138e+00 6.065144118816991892e+01
6.710000000000176712e+00 6.067434495392151206e+01
6.730000000000176286e+00 6.049074684276641989e+01
6.750000000000175859e+00 6.030811835954709466e+01
6.770000000000175433e+00 5.996100002907905235e+01
6.790000000000175007e+00 5.987526784559157278e+01
6.810000000000174580e+00 5.994216512504652883e+01
6.830000000000174154e+00 5.945258922409459501e+01
6.850000000000173728e+00 5.974113592144360751e+01
6.870000000000173301e+00 5.944501957201234177e+01
6.890000000000172875e+00 5.938209382622981281e+01
6.910000000000172449e+00 5.933748280936276842e+01
6.930000000000172022e+00 5.918231252833215450e+01
6.950000000000171596e+00 5.894281179732491438e+01
6.970000000000171170e+00 5.879497881448201468e+01
6.990000000000170743e+00 5.887562730025031499e+01
7.010000000000170317e+00 5.866480181045139375e+01
7.030000000000169891e+00 5.841264415143064781e+01
7.050000000000169464e+00 5.822545547060053650e+01
7.070000000000169038e+00 5.823079555691692377e+01
7.090000000000168612e+00 5.831659488691282434e+01
7.110000000000168185e+00 5.814663727888565603e+01
7.130000000000167759e+00 5.810978653341386035e+01
7.150000000000167333e+00 5.794636012838726202e+01
7.170000000000166906e+00 5.812929862522204161e+01
7.190000000000166480e+00 5.787921080150065478e+01
7.210000000000166054e+00 5.803324462762093816e+01
7.230000000000165628e+00 5.793746751184622212e+01
7.250000000000165201e+00 5.770883793864894074e+01
7.270000000000164775e+00 5.769672022566709302e+01
7.290000000000164349e+00 5.766431096740935658e+01
7.310000000000163922e+00 5.760200646174527606e+01
7.330000000000163496e+00 5.738903057714985323e+01
7.350000000000163070e+00 5.727161843998719348e+01
7.370000000000162643e+00 5.728437982350726543e+01
7.390000000000162217e+00 5.721498205756252986e+01
7.410000000000161791e+00 5.703454791420453773e+01
7.430000000000161364e+00 5.687742732352637631e+01
7.450000000000160938e+00 5.698517388551186258e+01
7.470000000000160512e+00 5.695485775613889246e+01
7.490000000000160085e+00 5.662058312260083426e+01
7.510000000000159659e+00 5.663360553436486811e+01
7.530000000000159233e+00 5.686402857390218202e+01
7.550000000000158806e+00 5.645774712903568826e+01
7.570000000000158380e+00 5.648735407255509244e+01
7.590000000000157954e+00 5.640845928783419794e+01
7.610000000000157527e+00 5.627530411010340572e+01
7.630000000000157101e+00 5.641275469642712892e+01
7.650000000000156675e+00 5.630159511434330710e+01
7.670000000000156248e+00 5.624544700797451924e+01
7.690000000000155822e+00 5.632062807819219330e+01
7.710000000000155396e+00 5.605572528068294957e+01
7.730000000000154969e+00 5.607383944241014717e+01
7.750000000000154543e+00 5.584084892541778089e+01
7.770000000000154117e+00 5.593382032189847308e+01
7.790000000000153690e+00 5.546526595287740946e+01
7.810000000000153264e+00 5.566956187127073719e+01
7.830000000000152838e+00 5.587198035876576085e+01
7.850000000000152411e+00 5.558703251948755053e+01
7.870000000000151985e+00 5.542101092043712640e+01
7.890000000000151559e+00 5.525780492160402702e+01
7.910000000000151132e+00 5.518925174908224562e+01
7.930000000000150706e+00 5.510981475805562013e+01
7.950000000000150280e+00 5.524054584647792154e+01
7.970000000000149853e+00 5.483704706787587924e+01
