# Redshift		Merger Rate Density [Gpc^-3yr^-1]
1.000000000031931770e-02 2.482456371915636240e+01
3.000000000031888964e-02 2.605386185161378165e+01
5.000000000031846331e-02 2.720033943866516424e+01
7.000000000031804392e-02 2.856484522154736894e+01
9.000000000031761760e-02 2.985727736894533635e+01
1.100000000003171913e-01 3.112198054804404634e+01
1.300000000003167511e-01 3.267373034097163043e+01
1.500000000003163247e-01 3.415118986351230035e+01
1.700000000003158984e-01 3.551718766441878472e+01
1.900000000003154721e-01 3.710701544098621696e+01
2.100000000003150458e-01 3.867041640530824509e+01
2.300000000003146194e-01 4.029869669362263807e+01
2.500000000003141931e-01 4.191284295167858431e+01
2.700000000003137668e-01 4.367331068997835075e+01
2.900000000003133405e-01 4.545747916159389490e+01
3.100000000003129141e-01 4.710746533619678189e+01
3.300000000003124878e-01 4.894354798156989972e+01
3.500000000003120615e-01 5.063273710726778631e+01
3.700000000003116352e-01 5.278000636742736162e+01
3.900000000003112088e-01 5.440061038744959632e+01
4.100000000003107825e-01 5.643424920153554325e+01
4.300000000003103562e-01 5.847807760102174512e+01
4.500000000003099299e-01 6.018889543095609440e+01
4.700000000003095035e-01 6.237396358136488317e+01
4.900000000003090772e-01 6.439363497220257671e+01
5.100000000003086509e-01 6.644743406875245739e+01
5.300000000003082246e-01 6.862244795009266340e+01
5.500000000003077982e-01 7.071748287125664945e+01
5.700000000003073719e-01 7.294128398716584627e+01
5.900000000003069456e-01 7.526527973063581101e+01
6.100000000003065193e-01 7.739477572738778122e+01
6.300000000003060929e-01 7.969785843458781471e+01
6.500000000003056666e-01 8.201459018534261247e+01
6.700000000003052403e-01 8.437631617094542946e+01
6.900000000003048140e-01 8.668418210087379805e+01
7.100000000003043876e-01 8.897996918625453588e+01
7.300000000003039613e-01 9.135168209717126331e+01
7.500000000003035350e-01 9.386911599536630035e+01
7.700000000003031086e-01 9.622695774672652647e+01
7.900000000003026823e-01 9.873186034670514744e+01
8.100000000003022560e-01 1.012848128547774706e+02
8.300000000003018297e-01 1.037422927207392860e+02
8.500000000003014033e-01 1.062764182897049210e+02
8.700000000003009770e-01 1.089633327426769540e+02
8.900000000003005507e-01 1.114966345934100360e+02
9.100000000003001244e-01 1.138980495866217240e+02
9.300000000002996980e-01 1.166310709915667161e+02
9.500000000002992717e-01 1.190973682088982457e+02
9.700000000002988454e-01 1.221078440767781785e+02
9.900000000002984191e-01 1.246378866704900474e+02
1.010000000000297993e+00 1.270882732019650945e+02
1.030000000000297566e+00 1.296290044379911421e+02
1.050000000000297140e+00 1.324496102446227610e+02
1.070000000000296714e+00 1.351211835429585904e+02
1.090000000000296287e+00 1.376936460943334737e+02
1.110000000000295861e+00 1.402345869198310311e+02
1.130000000000295435e+00 1.426699759657140589e+02
1.150000000000295008e+00 1.455427060046187648e+02
1.170000000000294582e+00 1.476606578382981922e+02
1.190000000000294156e+00 1.508437628646967994e+02
1.210000000000293729e+00 1.526862009203985906e+02
1.230000000000293303e+00 1.553579577563193368e+02
1.250000000000292877e+00 1.575466632801306446e+02
1.270000000000292451e+00 1.604227353174863708e+02
1.290000000000292024e+00 1.628256624745275190e+02
1.310000000000291598e+00 1.651837522068322244e+02
1.330000000000291172e+00 1.670602116442149452e+02
1.350000000000290745e+00 1.695554438961215169e+02
1.370000000000290319e+00 1.713791485855547307e+02
1.390000000000289893e+00 1.740543441378524676e+02
1.410000000000289466e+00 1.756807183547335569e+02
1.430000000000289040e+00 1.779601869251058019e+02
1.450000000000288614e+00 1.798525614772914025e+02
1.470000000000288187e+00 1.821734763101309795e+02
1.490000000000287761e+00 1.839177197331705145e+02
1.510000000000287335e+00 1.851484867924974935e+02
1.530000000000286908e+00 1.875131794496413704e+02
1.550000000000286482e+00 1.886558874544771811e+02
1.570000000000286056e+00 1.903582206519548379e+02
1.590000000000285629e+00 1.920086779376816253e+02
1.610000000000285203e+00 1.938476662838630489e+02
1.630000000000284777e+00 1.950904488568706938e+02
1.650000000000284350e+00 1.963581828057873508e+02
1.670000000000283924e+00 1.972620129346284727e+02
1.690000000000283498e+00 1.988031333680568480e+02
1.710000000000283071e+00 2.001299204984570395e+02
1.730000000000282645e+00 2.009354152047343121e+02
1.750000000000282219e+00 2.023693623013470528e+02
1.770000000000281792e+00 2.021029622991762835e+02
1.790000000000281366e+00 2.035016600127779611e+02
1.810000000000280940e+00 2.041019890262420518e+02
1.830000000000280513e+00 2.034586393669919460e+02
1.850000000000280087e+00 2.035597149460787421e+02
1.870000000000279661e+00 2.041574838840549830e+02
1.890000000000279234e+00 2.044082883038840635e+02
1.910000000000278808e+00 2.050776955621519164e+02
1.930000000000278382e+00 2.049685848603356817e+02
1.950000000000277955e+00 2.059756578031125969e+02
1.970000000000277529e+00 2.054541316001765097e+02
1.990000000000277103e+00 2.065388749768406740e+02
2.010000000000276899e+00 2.054778840668437567e+02
2.030000000000276472e+00 2.044127285200227391e+02
2.050000000000276046e+00 2.034653899966803294e+02
2.070000000000275620e+00 2.031027680418454509e+02
2.090000000000275193e+00 2.020730895983078597e+02
2.110000000000274767e+00 2.022516702062106617e+02
2.130000000000274341e+00 2.012044216685288518e+02
2.150000000000273914e+00 2.013665300244006744e+02
2.170000000000273488e+00 1.989051346390332924e+02
2.190000000000273062e+00 1.986750655991206997e+02
2.210000000000272635e+00 1.971971588213772293e+02
2.230000000000272209e+00 1.960249721346135630e+02
2.250000000000271783e+00 1.952823112868562703e+02
2.270000000000271356e+00 1.942626277608042074e+02
2.290000000000270930e+00 1.925861424995038647e+02
2.310000000000270504e+00 1.894592080379941308e+02
2.330000000000270077e+00 1.871461619135896797e+02
2.350000000000269651e+00 1.860066276565571570e+02
2.370000000000269225e+00 1.840107969134514292e+02
2.390000000000268798e+00 1.811867832866414005e+02
2.410000000000268372e+00 1.788788598084110788e+02
2.430000000000267946e+00 1.769963049775146828e+02
2.450000000000267519e+00 1.748620776288707077e+02
2.470000000000267093e+00 1.720523334942042197e+02
2.490000000000266667e+00 1.704522743532789093e+02
2.510000000000266240e+00 1.688488142117176380e+02
2.530000000000265814e+00 1.659884413372002712e+02
2.550000000000265388e+00 1.646839254630071139e+02
2.570000000000264961e+00 1.625161105860516102e+02
2.590000000000264535e+00 1.600056275956361560e+02
2.610000000000264109e+00 1.578475720043927595e+02
2.630000000000263682e+00 1.563271983528296687e+02
2.650000000000263256e+00 1.546714650122445391e+02
2.670000000000262830e+00 1.521077869833846137e+02
2.690000000000262403e+00 1.505118603700989866e+02
2.710000000000261977e+00 1.481976134588263392e+02
2.730000000000261551e+00 1.464888561350871896e+02
2.750000000000261124e+00 1.444981718047576464e+02
2.770000000000260698e+00 1.427392334124832018e+02
2.790000000000260272e+00 1.407336643615508933e+02
2.810000000000259845e+00 1.385967957503208368e+02
2.830000000000259419e+00 1.372346809962398311e+02
2.850000000000258993e+00 1.346531491985271884e+02
2.870000000000258567e+00 1.336238087142554889e+02
2.890000000000258140e+00 1.322907082397646832e+02
2.910000000000257714e+00 1.290188917472464709e+02
2.930000000000257288e+00 1.274945348899333055e+02
2.950000000000256861e+00 1.257700245195715212e+02
2.970000000000256435e+00 1.240288223982833813e+02
2.990000000000256009e+00 1.222490871332974933e+02
3.010000000000255582e+00 1.203295254317988849e+02
3.030000000000255156e+00 1.186822426314223264e+02
3.050000000000254730e+00 1.173638108865024492e+02
3.070000000000254303e+00 1.154462707575877971e+02
3.090000000000253877e+00 1.138146782686797280e+02
3.110000000000253451e+00 1.120008037614804266e+02
3.130000000000253024e+00 1.102581646468591714e+02
3.150000000000252598e+00 1.085530674979144123e+02
3.170000000000252172e+00 1.071780438906917965e+02
3.190000000000251745e+00 1.054197780166080776e+02
3.210000000000251319e+00 1.037813473783151039e+02
3.230000000000250893e+00 1.023789951432068506e+02
3.250000000000250466e+00 1.008132839538779564e+02
3.270000000000250040e+00 9.923580599184754192e+01
3.290000000000249614e+00 9.753657878833810457e+01
3.310000000000249187e+00 9.628083150908115329e+01
3.330000000000248761e+00 9.501977291175830942e+01
3.350000000000248335e+00 9.293511486087486162e+01
3.370000000000247908e+00 9.186192561611498775e+01
3.390000000000247482e+00 9.095746716035144175e+01
3.410000000000247056e+00 8.887985143160595669e+01
3.430000000000246629e+00 8.752053366919133737e+01
3.450000000000246203e+00 8.606231512830839847e+01
3.470000000000245777e+00 8.475126461899722585e+01
3.490000000000245350e+00 8.350858855589824259e+01
3.510000000000244924e+00 8.219657598151981404e+01
3.530000000000244498e+00 8.086964607448959441e+01
3.550000000000244071e+00 7.973610430470509414e+01
3.570000000000243645e+00 7.859238469322717435e+01
3.590000000000243219e+00 7.744542167921795794e+01
3.610000000000242792e+00 7.659604275757043013e+01
3.630000000000242366e+00 7.522520045977708492e+01
3.650000000000241940e+00 7.378781884099846877e+01
3.670000000000241513e+00 7.324008702024666206e+01
3.690000000000241087e+00 7.154522565094664799e+01
3.710000000000240661e+00 7.098757818028171585e+01
3.730000000000240234e+00 6.936351376690481629e+01
3.750000000000239808e+00 6.830978342783326696e+01
3.770000000000239382e+00 6.697937310541603040e+01
3.790000000000238956e+00 6.597661608298631108e+01
3.810000000000238529e+00 6.482552938702679057e+01
3.830000000000238103e+00 6.378291554647474726e+01
3.850000000000237677e+00 6.251856900377595849e+01
3.870000000000237250e+00 6.210095093214261652e+01
3.890000000000236824e+00 6.074776292711460002e+01
3.910000000000236398e+00 6.016547161624610141e+01
3.930000000000235971e+00 5.899945429515708639e+01
3.950000000000235545e+00 5.789605406046683811e+01
3.970000000000235119e+00 5.716321956624852163e+01
3.990000000000234692e+00 5.621787494820613773e+01
4.010000000000234266e+00 5.533513373696116844e+01
4.030000000000233840e+00 5.467592803776883414e+01
4.050000000000233413e+00 5.375350686835624714e+01
4.070000000000232987e+00 5.263277845258005527e+01
4.090000000000232561e+00 5.183354672722594358e+01
4.110000000000232134e+00 5.094673410467678565e+01
4.130000000000231708e+00 5.026389680119796566e+01
4.150000000000231282e+00 4.953047903704592869e+01
4.170000000000230855e+00 4.849381793011677644e+01
4.190000000000230429e+00 4.762675085331279945e+01
4.210000000000230003e+00 4.741190263896516655e+01
4.230000000000229576e+00 4.635860484486766353e+01
4.250000000000229150e+00 4.569158130017417108e+01
4.270000000000228724e+00 4.471345578906560547e+01
4.290000000000228297e+00 4.414366145076129300e+01
4.310000000000227871e+00 4.357175163181980082e+01
4.330000000000227445e+00 4.268181385189368626e+01
4.350000000000227018e+00 4.220560974402864929e+01
4.370000000000226592e+00 4.149622066304088008e+01
4.390000000000226166e+00 4.128184378880498429e+01
4.410000000000225739e+00 4.011449164672141876e+01
4.430000000000225313e+00 3.978760646287623359e+01
4.450000000000224887e+00 3.898354052071838538e+01
4.470000000000224460e+00 3.844870302957505714e+01
4.490000000000224034e+00 3.778137691179407653e+01
4.510000000000223608e+00 3.719755133391215907e+01
4.530000000000223181e+00 3.685601171122649333e+01
4.550000000000222755e+00 3.616019888672431648e+01
4.570000000000222329e+00 3.557367443483281733e+01
4.590000000000221902e+00 3.519852571057440116e+01
4.610000000000221476e+00 3.491652429226985532e+01
4.630000000000221050e+00 3.421462072964838086e+01
4.650000000000220624e+00 3.401537824616757177e+01
4.670000000000220197e+00 3.345818943473538809e+01
4.690000000000219771e+00 3.276041255701910870e+01
4.710000000000219345e+00 3.228326945043908580e+01
4.730000000000218918e+00 3.207643205454849067e+01
4.750000000000218492e+00 3.142486552140143985e+01
4.770000000000218066e+00 3.110168726171760056e+01
4.790000000000217639e+00 3.045286276791679114e+01
4.810000000000217213e+00 3.004231256613338275e+01
4.830000000000216787e+00 2.960880216662356190e+01
4.850000000000216360e+00 2.891573840210667612e+01
4.870000000000215934e+00 2.874303326062428354e+01
4.890000000000215508e+00 2.831650928211574225e+01
4.910000000000215081e+00 2.773506839465693474e+01
4.930000000000214655e+00 2.751495413122157530e+01
4.950000000000214229e+00 2.708789738335985220e+01
4.970000000000213802e+00 2.676701946309930591e+01
4.990000000000213376e+00 2.636822336299430347e+01
5.010000000000212950e+00 2.609498850322510677e+01
5.030000000000212523e+00 2.573190370282044626e+01
5.050000000000212097e+00 2.541971940588716450e+01
5.070000000000211671e+00 2.496129555715513604e+01
5.090000000000211244e+00 2.468709286839925454e+01
5.110000000000210818e+00 2.411165254964688742e+01
5.130000000000210392e+00 2.387231557891753297e+01
5.150000000000209965e+00 2.355933921321476632e+01
5.170000000000209539e+00 2.348989934252752221e+01
5.190000000000209113e+00 2.289040851686494094e+01
5.210000000000208686e+00 2.260056786976783627e+01
5.230000000000208260e+00 2.207992950739596694e+01
5.250000000000207834e+00 2.204133179331430625e+01
5.270000000000207407e+00 2.150457313393478742e+01
5.290000000000206981e+00 2.125227017869873336e+01
5.310000000000206555e+00 2.101115654693104062e+01
5.330000000000206128e+00 2.074963072448337797e+01
5.350000000000205702e+00 2.038180380318345541e+01
5.370000000000205276e+00 2.000121782219283872e+01
5.390000000000204849e+00 2.003345616568828547e+01
5.410000000000204423e+00 1.964428085255593359e+01
5.430000000000203997e+00 1.948585753136122989e+01
5.450000000000203570e+00 1.924571253587180664e+01
5.470000000000203144e+00 1.903124667738862286e+01
5.490000000000202718e+00 1.877438234273081363e+01
5.510000000000202292e+00 1.840023327824693311e+01
5.530000000000201865e+00 1.819727448817760518e+01
5.550000000000201439e+00 1.800158832048012059e+01
5.570000000000201013e+00 1.771235106991237629e+01
5.590000000000200586e+00 1.735690936156334985e+01
5.610000000000200160e+00 1.727524548173704133e+01
5.630000000000199734e+00 1.692202802821586261e+01
5.650000000000199307e+00 1.679077070192408883e+01
5.670000000000198881e+00 1.646833213792722361e+01
5.690000000000198455e+00 1.625526230376802417e+01
5.710000000000198028e+00 1.614971226622295575e+01
5.730000000000197602e+00 1.594403771219050903e+01
5.750000000000197176e+00 1.563576003280982540e+01
5.770000000000196749e+00 1.528572728725213459e+01
5.790000000000196323e+00 1.523647511889901729e+01
5.810000000000195897e+00 1.502470862488982206e+01
5.830000000000195470e+00 1.487360315678063216e+01
5.850000000000195044e+00 1.457335828818918699e+01
5.870000000000194618e+00 1.448926615114952909e+01
5.890000000000194191e+00 1.422169514786545541e+01
5.910000000000193765e+00 1.408213538307631119e+01
5.930000000000193339e+00 1.387383779686350849e+01
5.950000000000192912e+00 1.366458686142513201e+01
5.970000000000192486e+00 1.356792979447304326e+01
5.990000000000192060e+00 1.330301036320140895e+01
6.010000000000191633e+00 1.318840503757782301e+01
6.030000000000191207e+00 1.300143205538265612e+01
6.050000000000190781e+00 1.284938793051177086e+01
6.070000000000190354e+00 1.284371115816747988e+01
6.090000000000189928e+00 1.251049299192086295e+01
6.110000000000189502e+00 1.256709585080277947e+01
6.130000000000189075e+00 1.229244866873155573e+01
6.150000000000188649e+00 1.217166905919043884e+01
6.170000000000188223e+00 1.203037486720908333e+01
6.190000000000187796e+00 1.177941129750840332e+01
6.210000000000187370e+00 1.151451076515220251e+01
6.230000000000186944e+00 1.153655776941843492e+01
6.250000000000186517e+00 1.126942356337653628e+01
6.270000000000186091e+00 1.126378186595247222e+01
6.290000000000185665e+00 1.106923652513962608e+01
6.310000000000185238e+00 1.088825724406191853e+01
6.330000000000184812e+00 1.062549550017722311e+01
6.350000000000184386e+00 1.070874009016756823e+01
6.370000000000183960e+00 1.050447822022939626e+01
6.390000000000183533e+00 1.037525499193342426e+01
6.410000000000183107e+00 1.021651366087654189e+01
6.430000000000182681e+00 1.010519037768055917e+01
6.450000000000182254e+00 9.898318769926840233e+00
6.470000000000181828e+00 9.821030122362801151e+00
6.490000000000181402e+00 9.534520262161773729e+00
6.510000000000180975e+00 9.632613045006586106e+00
6.530000000000180549e+00 9.358278386064437626e+00
6.550000000000180123e+00 9.359175324956314768e+00
6.570000000000179696e+00 9.157572217280307569e+00
6.590000000000179270e+00 9.113604482528122830e+00
6.610000000000178844e+00 8.979088109410565011e+00
6.630000000000178417e+00 8.852598071831167204e+00
6.650000000000177991e+00 8.842471605712686866e+00
6.670000000000177565e+00 8.652562344416084628e+00
6.690000000000177138e+00 8.620925403917180319e+00
6.710000000000176712e+00 8.528380961677370919e+00
6.730000000000176286e+00 8.384737002717761456e+00
6.750000000000175859e+00 8.337561534940336472e+00
6.770000000000175433e+00 8.228394212220086601e+00
6.790000000000175007e+00 8.073888335417580109e+00
6.810000000000174580e+00 8.020010772067749372e+00
6.830000000000174154e+00 7.784394111730872368e+00
6.850000000000173728e+00 7.685923208955172115e+00
6.870000000000173301e+00 7.667339878136504083e+00
6.890000000000172875e+00 7.601721128456565779e+00
6.910000000000172449e+00 7.395216209359290360e+00
6.930000000000172022e+00 7.328911250197939431e+00
6.950000000000171596e+00 7.242422639794494188e+00
6.970000000000171170e+00 7.204879584223384370e+00
6.990000000000170743e+00 7.139672905520239254e+00
7.010000000000170317e+00 6.998239992832721690e+00
7.030000000000169891e+00 6.943562819887621806e+00
7.050000000000169464e+00 6.816820734018811834e+00
7.070000000000169038e+00 6.727052378620745010e+00
7.090000000000168612e+00 6.632017311019591688e+00
7.110000000000168185e+00 6.616107974713857587e+00
7.130000000000167759e+00 6.448119223958561186e+00
7.150000000000167333e+00 6.340094983993547650e+00
7.170000000000166906e+00 6.327396645874539871e+00
7.190000000000166480e+00 6.225561106480277829e+00
7.210000000000166054e+00 6.139725441253197857e+00
7.230000000000165628e+00 6.146990448139038499e+00
7.250000000000165201e+00 6.087169073543298836e+00
7.270000000000164775e+00 5.987837928286760203e+00
7.290000000000164349e+00 5.851992104983506415e+00
7.310000000000163922e+00 5.810858506365481624e+00
7.330000000000163496e+00 5.717191897592686978e+00
7.350000000000163070e+00 5.727281513867819918e+00
7.370000000000162643e+00 5.604666484276834559e+00
7.390000000000162217e+00 5.518892083220698019e+00
7.410000000000161791e+00 5.465004786641956436e+00
7.430000000000161364e+00 5.410635257804963238e+00
7.450000000000160938e+00 5.352046648454967581e+00
7.470000000000160512e+00 5.281786785732182743e+00
7.490000000000160085e+00 5.177270361872507998e+00
7.510000000000159659e+00 5.084951084241450481e+00
7.530000000000159233e+00 5.058299441746059166e+00
7.550000000000158806e+00 4.947237143590165864e+00
7.570000000000158380e+00 4.925346727826066306e+00
7.590000000000157954e+00 4.890638759195932828e+00
7.610000000000157527e+00 4.721908522326504709e+00
7.630000000000157101e+00 4.695030000302032214e+00
7.650000000000156675e+00 4.700140704249629486e+00
7.670000000000156248e+00 4.627058167376609354e+00
7.690000000000155822e+00 4.594872473351156117e+00
7.710000000000155396e+00 4.452986427526318458e+00
7.730000000000154969e+00 4.481025550135079527e+00
7.750000000000154543e+00 4.411809121100424669e+00
7.770000000000154117e+00 4.404585604983579650e+00
7.790000000000153690e+00 4.351269866467160519e+00
7.810000000000153264e+00 4.222599540164056364e+00
7.830000000000152838e+00 4.156029836483004836e+00
7.850000000000152411e+00 4.105478189936740741e+00
7.870000000000151985e+00 4.076408152320612821e+00
7.890000000000151559e+00 4.060753275656205474e+00
7.910000000000151132e+00 3.966152360759735096e+00
7.930000000000150706e+00 3.926214103615640827e+00
7.950000000000150280e+00 3.862067103189511741e+00
7.970000000000149853e+00 3.795805339541777457e+00
