# Redshift		Merger Rate Density [Gpc^-3yr^-1]
1.000000000031931770e-02 2.031746229933138892e+01
3.000000000031888964e-02 2.125017860406172332e+01
5.000000000031846331e-02 2.231491854413106424e+01
7.000000000031804392e-02 2.320119137464634562e+01
9.000000000031761760e-02 2.436301899595487441e+01
1.100000000003171913e-01 2.536763183014202738e+01
1.300000000003167511e-01 2.652773407588351873e+01
1.500000000003163247e-01 2.756944897947120765e+01
1.700000000003158984e-01 2.882214853611836602e+01
1.900000000003154721e-01 2.983643592788455834e+01
2.100000000003150458e-01 3.120936673758950874e+01
2.300000000003146194e-01 3.238410157974865200e+01
2.500000000003141931e-01 3.359678058410009527e+01
2.700000000003137668e-01 3.497976327321713796e+01
2.900000000003133405e-01 3.618761307625646850e+01
3.100000000003129141e-01 3.743566542974172506e+01
3.300000000003124878e-01 3.880796694951778392e+01
3.500000000003120615e-01 4.007207120896737962e+01
3.700000000003116352e-01 4.155074191503764780e+01
3.900000000003112088e-01 4.300695365671580106e+01
4.100000000003107825e-01 4.429632883540980259e+01
4.300000000003103562e-01 4.592978415782037160e+01
4.500000000003099299e-01 4.717654060407048178e+01
4.700000000003095035e-01 4.873670594211268536e+01
4.900000000003090772e-01 5.033960614347211759e+01
5.100000000003086509e-01 5.165912312940963602e+01
5.300000000003082246e-01 5.339980682060197381e+01
5.500000000003077982e-01 5.502689631024228589e+01
5.700000000003073719e-01 5.656595646273158451e+01
5.900000000003069456e-01 5.806873671100962042e+01
6.100000000003065193e-01 5.970485002476724645e+01
6.300000000003060929e-01 6.161389181503454182e+01
6.500000000003056666e-01 6.329869249721387092e+01
6.700000000003052403e-01 6.494466609415366065e+01
6.900000000003048140e-01 6.671955674292610183e+01
7.100000000003043876e-01 6.837252172259630356e+01
7.300000000003039613e-01 7.019522546132500906e+01
7.500000000003035350e-01 7.238478223396596434e+01
7.700000000003031086e-01 7.375638168771642711e+01
7.900000000003026823e-01 7.569167638962481703e+01
8.100000000003022560e-01 7.771319650872246143e+01
8.300000000003018297e-01 7.921286006276417879e+01
8.500000000003014033e-01 8.121692164534245251e+01
8.700000000003009770e-01 8.292858189888596598e+01
8.900000000003005507e-01 8.470493236130958792e+01
9.100000000003001244e-01 8.660768026200770464e+01
9.300000000002996980e-01 8.852688609152210120e+01
9.500000000002992717e-01 9.036912326235970738e+01
9.700000000002988454e-01 9.218711940436260477e+01
9.900000000002984191e-01 9.441655552843263877e+01
1.010000000000297993e+00 9.594077521744326020e+01
1.030000000000297566e+00 9.794283134669809954e+01
1.050000000000297140e+00 9.997706767616782031e+01
1.070000000000296714e+00 1.016292615181807690e+02
1.090000000000296287e+00 1.038231126590869593e+02
1.110000000000295861e+00 1.052979043387832974e+02
1.130000000000295435e+00 1.071296604049158958e+02
1.150000000000295008e+00 1.093541518722527570e+02
1.170000000000294582e+00 1.106196210906610560e+02
1.190000000000294156e+00 1.125310636593398925e+02
1.210000000000293729e+00 1.152805650917396036e+02
1.230000000000293303e+00 1.163030562919151123e+02
1.250000000000292877e+00 1.179812928597606714e+02
1.270000000000292451e+00 1.194605173586135294e+02
1.290000000000292024e+00 1.211743432309427675e+02
1.310000000000291598e+00 1.226740154529813935e+02
1.330000000000291172e+00 1.247543641195038902e+02
1.350000000000290745e+00 1.257136679044952814e+02
1.370000000000290319e+00 1.274591715328605801e+02
1.390000000000289893e+00 1.289534772476944511e+02
1.410000000000289466e+00 1.308701996202551925e+02
1.430000000000289040e+00 1.313413872863842187e+02
1.450000000000288614e+00 1.331421595603030994e+02
1.470000000000288187e+00 1.349085637644265319e+02
1.490000000000287761e+00 1.356330336265525034e+02
1.510000000000287335e+00 1.367573909494249733e+02
1.530000000000286908e+00 1.381532708426215663e+02
1.550000000000286482e+00 1.387682227271674833e+02
1.570000000000286056e+00 1.397095013709287912e+02
1.590000000000285629e+00 1.409969031876250654e+02
1.610000000000285203e+00 1.416562254049513569e+02
1.630000000000284777e+00 1.425445480313871371e+02
1.650000000000284350e+00 1.431957633334151296e+02
1.670000000000283924e+00 1.443699408889663687e+02
1.690000000000283498e+00 1.450085879111178144e+02
1.710000000000283071e+00 1.456112417077898158e+02
1.730000000000282645e+00 1.458349016926223669e+02
1.750000000000282219e+00 1.459738485306411064e+02
1.770000000000281792e+00 1.473198460165075403e+02
1.790000000000281366e+00 1.474029571321036656e+02
1.810000000000280940e+00 1.476807407203087905e+02
1.830000000000280513e+00 1.472995146078475557e+02
1.850000000000280087e+00 1.468542536986153664e+02
1.870000000000279661e+00 1.490645278928163009e+02
1.890000000000279234e+00 1.485531153035095997e+02
1.910000000000278808e+00 1.476594685233074244e+02
1.930000000000278382e+00 1.459864748970668984e+02
1.950000000000277955e+00 1.455905135827318873e+02
1.970000000000277529e+00 1.458015339662294991e+02
1.990000000000277103e+00 1.448177303641174092e+02
2.010000000000276899e+00 1.438117512394740913e+02
2.030000000000276472e+00 1.435753010619475276e+02
2.050000000000276046e+00 1.429120389417990111e+02
2.070000000000275620e+00 1.415643732810526672e+02
2.090000000000275193e+00 1.411671223227602638e+02
2.110000000000274767e+00 1.405120663938613461e+02
2.130000000000274341e+00 1.382639734684479720e+02
2.150000000000273914e+00 1.375347989304430598e+02
2.170000000000273488e+00 1.374445782661624946e+02
2.190000000000273062e+00 1.360670690831394722e+02
2.210000000000272635e+00 1.348157983360292747e+02
2.230000000000272209e+00 1.337851235054107235e+02
2.250000000000271783e+00 1.323151666616018929e+02
2.270000000000271356e+00 1.314453579877457798e+02
2.290000000000270930e+00 1.308745972523922489e+02
2.310000000000270504e+00 1.298693711206147157e+02
2.330000000000270077e+00 1.289903307349496799e+02
2.350000000000269651e+00 1.271063772218531653e+02
2.370000000000269225e+00 1.252700962877495243e+02
2.390000000000268798e+00 1.244937105179923122e+02
2.410000000000268372e+00 1.230152275856711839e+02
2.430000000000267946e+00 1.219126104089061897e+02
2.450000000000267519e+00 1.199797486952953705e+02
2.470000000000267093e+00 1.182156081017571836e+02
2.490000000000266667e+00 1.169280940998250315e+02
2.510000000000266240e+00 1.165722385820314457e+02
2.530000000000265814e+00 1.151148002648601363e+02
2.550000000000265388e+00 1.134047255113348456e+02
2.570000000000264961e+00 1.118117275310840029e+02
2.590000000000264535e+00 1.110250251118970795e+02
2.610000000000264109e+00 1.089227056313722670e+02
2.630000000000263682e+00 1.074348050146148097e+02
2.650000000000263256e+00 1.065466515159267118e+02
2.670000000000262830e+00 1.046668280392766377e+02
2.690000000000262403e+00 1.025133482553493565e+02
2.710000000000261977e+00 1.010671032374408327e+02
2.730000000000261551e+00 9.959393780267336638e+01
2.750000000000261124e+00 9.805700880551722776e+01
2.770000000000260698e+00 9.643161479403779879e+01
2.790000000000260272e+00 9.472118253949099653e+01
2.810000000000259845e+00 9.334274313943450352e+01
2.830000000000259419e+00 9.171612848767361470e+01
2.850000000000258993e+00 9.018723945063678116e+01
2.870000000000258567e+00 8.907271714109320726e+01
2.890000000000258140e+00 8.705093645433417748e+01
2.910000000000257714e+00 8.577101712138770040e+01
2.930000000000257288e+00 8.473342835377928850e+01
2.950000000000256861e+00 8.301492427426040877e+01
2.970000000000256435e+00 8.180720092666072674e+01
2.990000000000256009e+00 8.030903789398982440e+01
3.010000000000255582e+00 7.887845258879718813e+01
3.030000000000255156e+00 7.787593825425189209e+01
3.050000000000254730e+00 7.615892679049541414e+01
3.070000000000254303e+00 7.511284894764175135e+01
3.090000000000253877e+00 7.388459738776035124e+01
3.110000000000253451e+00 7.256304648097140841e+01
3.130000000000253024e+00 7.109829952603180914e+01
3.150000000000252598e+00 7.046123246865472822e+01
3.170000000000252172e+00 6.865820209258113493e+01
3.190000000000251745e+00 6.775688891828708904e+01
3.210000000000251319e+00 6.671422911004815148e+01
3.230000000000250893e+00 6.592054838070100686e+01
3.250000000000250466e+00 6.501273538527527762e+01
3.270000000000250040e+00 6.387514382035908511e+01
3.290000000000249614e+00 6.191212434137413823e+01
3.310000000000249187e+00 6.114177518983850490e+01
3.330000000000248761e+00 6.007897317401403825e+01
3.350000000000248335e+00 5.926453880971765642e+01
3.370000000000247908e+00 5.814852615928973023e+01
3.390000000000247482e+00 5.676920479170677680e+01
3.410000000000247056e+00 5.580670326806576043e+01
3.430000000000246629e+00 5.459349902176135316e+01
3.450000000000246203e+00 5.351314245648995183e+01
3.470000000000245777e+00 5.256553068436272724e+01
3.490000000000245350e+00 5.213813027272268386e+01
3.510000000000244924e+00 5.126475016498280013e+01
3.530000000000244498e+00 4.995672600415932152e+01
3.550000000000244071e+00 4.876027003587371667e+01
3.570000000000243645e+00 4.803633829327255711e+01
3.590000000000243219e+00 4.686348700410322010e+01
3.610000000000242792e+00 4.632173246308913406e+01
3.630000000000242366e+00 4.525902198140293820e+01
3.650000000000241940e+00 4.449826743070327240e+01
3.670000000000241513e+00 4.380056794837102530e+01
3.690000000000241087e+00 4.293131612746946502e+01
3.710000000000240661e+00 4.206701495620973930e+01
3.730000000000240234e+00 4.131407971019504544e+01
3.750000000000239808e+00 4.062167997324387159e+01
3.770000000000239382e+00 3.936265504249951164e+01
3.790000000000238956e+00 3.885149821792125380e+01
3.810000000000238529e+00 3.818403541012303748e+01
3.830000000000238103e+00 3.734700340549501618e+01
3.850000000000237677e+00 3.650613197245099428e+01
3.870000000000237250e+00 3.593023843251238247e+01
3.890000000000236824e+00 3.511931849788975057e+01
3.910000000000236398e+00 3.438044183694507439e+01
3.930000000000235971e+00 3.383197700238680738e+01
3.950000000000235545e+00 3.326864400532969057e+01
3.970000000000235119e+00 3.268822275140251321e+01
3.990000000000234692e+00 3.197460034742518076e+01
4.010000000000234266e+00 3.144683169498234676e+01
4.030000000000233840e+00 3.062793715259949323e+01
4.050000000000233413e+00 3.008041501236074211e+01
4.070000000000232987e+00 2.962898978036148989e+01
4.090000000000232561e+00 2.892269794176447206e+01
4.110000000000232134e+00 2.874218996441144824e+01
4.130000000000231708e+00 2.797971859850975918e+01
4.150000000000231282e+00 2.768799355543686502e+01
4.170000000000230855e+00 2.731584324139342357e+01
4.190000000000230429e+00 2.682557358976860584e+01
4.210000000000230003e+00 2.633666673527902446e+01
4.230000000000229576e+00 2.583553341608475762e+01
4.250000000000229150e+00 2.518968364719981068e+01
4.270000000000228724e+00 2.430615447231770787e+01
4.290000000000228297e+00 2.415542060006533731e+01
4.310000000000227871e+00 2.359740386424545022e+01
4.330000000000227445e+00 2.325345671132206604e+01
4.350000000000227018e+00 2.294395849185520575e+01
4.370000000000226592e+00 2.239348553102603745e+01
4.390000000000226166e+00 2.192351427279316667e+01
4.410000000000225739e+00 2.148443225191473616e+01
4.430000000000225313e+00 2.108265206598228758e+01
4.450000000000224887e+00 2.057786702483527108e+01
4.470000000000224460e+00 2.023429145095955306e+01
4.490000000000224034e+00 1.991605223271075431e+01
4.510000000000223608e+00 1.963897035344898612e+01
4.530000000000223181e+00 1.919137876225994077e+01
4.550000000000222755e+00 1.878765951535149270e+01
4.570000000000222329e+00 1.835403531538080912e+01
4.590000000000221902e+00 1.794510997537790686e+01
4.610000000000221476e+00 1.768640500569124896e+01
4.630000000000221050e+00 1.714498217254972090e+01
4.650000000000220624e+00 1.699021172120936640e+01
4.670000000000220197e+00 1.665343609645863410e+01
4.690000000000219771e+00 1.625219107799663831e+01
4.710000000000219345e+00 1.602459465609131328e+01
4.730000000000218918e+00 1.578439658018025504e+01
4.750000000000218492e+00 1.530629816329020443e+01
4.770000000000218066e+00 1.496479364859413685e+01
4.790000000000217639e+00 1.470650778648958656e+01
4.810000000000217213e+00 1.448738983748219766e+01
4.830000000000216787e+00 1.428669614884936045e+01
4.850000000000216360e+00 1.391840273265543004e+01
4.870000000000215934e+00 1.348891389739437230e+01
4.890000000000215508e+00 1.338850069662544051e+01
4.910000000000215081e+00 1.305441834733426987e+01
4.930000000000214655e+00 1.291595705162597163e+01
4.950000000000214229e+00 1.268091403327808919e+01
4.970000000000213802e+00 1.246863465897184220e+01
4.990000000000213376e+00 1.217163397367975541e+01
5.010000000000212950e+00 1.189420162754548471e+01
5.030000000000212523e+00 1.140352368801305971e+01
5.050000000000212097e+00 1.136452666485244656e+01
5.070000000000211671e+00 1.109787177789576873e+01
5.090000000000211244e+00 1.091727642783165209e+01
5.110000000000210818e+00 1.066279477690175526e+01
5.130000000000210392e+00 1.049849630106322707e+01
5.150000000000209965e+00 1.023146339608828903e+01
5.170000000000209539e+00 1.004284834754934863e+01
5.190000000000209113e+00 9.797891578217525321e+00
5.210000000000208686e+00 9.545634599774064810e+00
5.230000000000208260e+00 9.450339796901445766e+00
5.250000000000207834e+00 9.244330239372743563e+00
5.270000000000207407e+00 8.979882202650479428e+00
5.290000000000206981e+00 8.981977820696949166e+00
5.310000000000206555e+00 8.790859416144646943e+00
5.330000000000206128e+00 8.656312932438297025e+00
5.350000000000205702e+00 8.516748023655500432e+00
5.370000000000205276e+00 8.186923169413992341e+00
5.390000000000204849e+00 8.060288520536072809e+00
5.410000000000204423e+00 7.841239417398294442e+00
5.430000000000203997e+00 7.635647212945833040e+00
5.450000000000203570e+00 7.538753652236559688e+00
5.470000000000203144e+00 7.454569744890507721e+00
5.490000000000202718e+00 7.266254574710146130e+00
5.510000000000202292e+00 7.089552445455473695e+00
5.530000000000201865e+00 6.962715610839626201e+00
5.550000000000201439e+00 6.931274714219483712e+00
5.570000000000201013e+00 6.743422226103666262e+00
5.590000000000200586e+00 6.558064077050404173e+00
5.610000000000200160e+00 6.510012000401887100e+00
5.630000000000199734e+00 6.298586633331167306e+00
5.650000000000199307e+00 6.173939565307860811e+00
5.670000000000198881e+00 6.059691161068657017e+00
5.690000000000198455e+00 5.900458089907732351e+00
5.710000000000198028e+00 5.640181385606427789e+00
5.730000000000197602e+00 5.610542862419499066e+00
5.750000000000197176e+00 5.513432283360335084e+00
5.770000000000196749e+00 5.376903363460187713e+00
5.790000000000196323e+00 5.280186947751244197e+00
5.810000000000195897e+00 5.115309774652531338e+00
5.830000000000195470e+00 5.001786941540441234e+00
5.850000000000195044e+00 4.949903440283327072e+00
5.870000000000194618e+00 4.797044745885162165e+00
5.890000000000194191e+00 4.683990550442596934e+00
5.910000000000193765e+00 4.562738361889949523e+00
5.930000000000193339e+00 4.506351071132453256e+00
5.950000000000192912e+00 4.445126632545052026e+00
5.970000000000192486e+00 4.330179824263328925e+00
5.990000000000192060e+00 4.284830232007469597e+00
6.010000000000191633e+00 4.147739912541523744e+00
6.030000000000191207e+00 4.047354131658490672e+00
6.050000000000190781e+00 3.937363165450566527e+00
6.070000000000190354e+00 3.869858274954086408e+00
6.090000000000189928e+00 3.786434450589152956e+00
6.110000000000189502e+00 3.697737309654027804e+00
6.130000000000189075e+00 3.653958382027211016e+00
6.150000000000188649e+00 3.603689748386388114e+00
6.170000000000188223e+00 3.508023548085569931e+00
6.190000000000187796e+00 3.416020716315780970e+00
6.210000000000187370e+00 3.371004348297695241e+00
6.230000000000186944e+00 3.247964607136143211e+00
6.250000000000186517e+00 3.228329432595312909e+00
6.270000000000186091e+00 3.109953119758819717e+00
6.290000000000185665e+00 3.033306473605415388e+00
6.310000000000185238e+00 2.976185017044384651e+00
6.330000000000184812e+00 2.919343486157155887e+00
6.350000000000184386e+00 2.859397527575450848e+00
6.370000000000183960e+00 2.805729452746851482e+00
6.390000000000183533e+00 2.659759103596452512e+00
6.410000000000183107e+00 2.614257912888918067e+00
6.430000000000182681e+00 2.552667508974968413e+00
6.450000000000182254e+00 2.500190283985304518e+00
6.470000000000181828e+00 2.494016947973519915e+00
6.490000000000181402e+00 2.399175765760141132e+00
6.510000000000180975e+00 2.351339899787317833e+00
6.530000000000180549e+00 2.309592127226252067e+00
6.550000000000180123e+00 2.267891860685810279e+00
6.570000000000179696e+00 2.193766332945010777e+00
6.590000000000179270e+00 2.161957793441994458e+00
6.610000000000178844e+00 2.090153778742783963e+00
6.630000000000178417e+00 2.068284954460596126e+00
6.650000000000177991e+00 2.039611244962221459e+00
6.670000000000177565e+00 1.939601690180090987e+00
6.690000000000177138e+00 1.880677314684276125e+00
6.710000000000176712e+00 1.830970335440447183e+00
6.730000000000176286e+00 1.838561485758543057e+00
6.750000000000175859e+00 1.769155060225445331e+00
6.770000000000175433e+00 1.699088952682343168e+00
6.790000000000175007e+00 1.658905255519622424e+00
6.810000000000174580e+00 1.652256045583729405e+00
6.830000000000174154e+00 1.624961137940948763e+00
6.850000000000173728e+00 1.581757603463932238e+00
6.870000000000173301e+00 1.538962309371697534e+00
6.890000000000172875e+00 1.508231374247698486e+00
6.910000000000172449e+00 1.501107325367218026e+00
6.930000000000172022e+00 1.463895635479280477e+00
6.950000000000171596e+00 1.416517475935325399e+00
6.970000000000171170e+00 1.386012068058796842e+00
6.990000000000170743e+00 1.348062126965049679e+00
7.010000000000170317e+00 1.321530117806926530e+00
7.030000000000169891e+00 1.290133793838303955e+00
7.050000000000169464e+00 1.235541590316784122e+00
7.070000000000169038e+00 1.231454814999485947e+00
7.090000000000168612e+00 1.172530938654423149e+00
7.110000000000168185e+00 1.163174693898097134e+00
7.130000000000167759e+00 1.132736259635969578e+00
7.150000000000167333e+00 1.082067980150477116e+00
7.170000000000166906e+00 1.053603974340613147e+00
7.190000000000166480e+00 1.038550218670906133e+00
7.210000000000166054e+00 1.007077921149623689e+00
7.230000000000165628e+00 9.770875021703580021e-01
7.250000000000165201e+00 9.601789953139180378e-01
7.270000000000164775e+00 9.604993167767350570e-01
7.290000000000164349e+00 9.322631679015305206e-01
7.310000000000163922e+00 9.339875987514840716e-01
7.330000000000163496e+00 8.699083332366336352e-01
7.350000000000163070e+00 8.563123134793607649e-01
7.370000000000162643e+00 8.565731175899283789e-01
7.390000000000162217e+00 8.343578721473265958e-01
7.410000000000161791e+00 8.046062372937771157e-01
7.430000000000161364e+00 7.845624712253990163e-01
7.450000000000160938e+00 7.662218770677919899e-01
7.470000000000160512e+00 7.389996873539289579e-01
7.490000000000160085e+00 7.275218741164749536e-01
7.510000000000159659e+00 7.177783767260881298e-01
7.530000000000159233e+00 7.112491590512334261e-01
7.550000000000158806e+00 6.756464331688344371e-01
7.570000000000158380e+00 6.448640651916878186e-01
7.590000000000157954e+00 6.442550492076801749e-01
7.610000000000157527e+00 6.304751229953069469e-01
7.630000000000157101e+00 6.165323533400932643e-01
7.650000000000156675e+00 5.918180510441207742e-01
7.670000000000156248e+00 5.674954605513100603e-01
7.690000000000155822e+00 5.896198478307548285e-01
7.710000000000155396e+00 5.652317981013634807e-01
7.730000000000154969e+00 5.388224745386300807e-01
7.750000000000154543e+00 5.374175568287039573e-01
7.770000000000154117e+00 5.037420401282827198e-01
7.790000000000153690e+00 5.128569245842368174e-01
7.810000000000153264e+00 4.911106522594513857e-01
7.830000000000152838e+00 4.676968801970536327e-01
7.850000000000152411e+00 4.776938802579936416e-01
7.870000000000151985e+00 4.525700900510368774e-01
7.890000000000151559e+00 4.480478180914718167e-01
7.910000000000151132e+00 4.488336590987495045e-01
7.930000000000150706e+00 4.272162783672356356e-01
7.950000000000150280e+00 4.190484492724609877e-01
7.970000000000149853e+00 3.946130797833423132e-01
