# Redshift		Merger Rate Density [Gpc^-3yr^-1]
1.000000000031931770e-02 1.470353302783787512e+02
3.000000000031888964e-02 1.549242714445468323e+02
5.000000000031846331e-02 1.608789477976216062e+02
7.000000000031804392e-02 1.683952253249155149e+02
9.000000000031761760e-02 1.753060736122678804e+02
1.100000000003171913e-01 1.832501893406511613e+02
1.300000000003167511e-01 1.910079860334142268e+02
1.500000000003163247e-01 1.993020071283197012e+02
1.700000000003158984e-01 2.061805540210329468e+02
1.900000000003154721e-01 2.160153185245574150e+02
2.100000000003150458e-01 2.229150761731904140e+02
2.300000000003146194e-01 2.307515728519135791e+02
2.500000000003141931e-01 2.407437768457731124e+02
2.700000000003137668e-01 2.490459630771069897e+02
2.900000000003133405e-01 2.571484719856190395e+02
3.100000000003129141e-01 2.672882676106803501e+02
3.300000000003124878e-01 2.750535192923289287e+02
3.500000000003120615e-01 2.847303589815566056e+02
3.700000000003116352e-01 2.944686532237850543e+02
3.900000000003112088e-01 3.025569220684026277e+02
4.100000000003107825e-01 3.127598699511153768e+02
4.300000000003103562e-01 3.219910413998085232e+02
4.500000000003099299e-01 3.307670649785653154e+02
4.700000000003095035e-01 3.429250607932384014e+02
4.900000000003090772e-01 3.494722727942241249e+02
5.100000000003086509e-01 3.615191873235608000e+02
5.300000000003082246e-01 3.704783848097374630e+02
5.500000000003077982e-01 3.816029503840281336e+02
5.700000000003073719e-01 3.899819060679512290e+02
5.900000000003069456e-01 4.000551581218858814e+02
6.100000000003065193e-01 4.118333085350948295e+02
6.300000000003060929e-01 4.197747948587002043e+02
6.500000000003056666e-01 4.314493729547930343e+02
6.700000000003052403e-01 4.402427978841937488e+02
6.900000000003048140e-01 4.496401773857976991e+02
7.100000000003043876e-01 4.613772247742356285e+02
7.300000000003039613e-01 4.716726855771563578e+02
7.500000000003035350e-01 4.787520408293286209e+02
7.700000000003031086e-01 4.914808008251886804e+02
7.900000000003026823e-01 4.989608924359482671e+02
8.100000000003022560e-01 5.098635270031476239e+02
8.300000000003018297e-01 5.175528476924977213e+02
8.500000000003014033e-01 5.303477817459337302e+02
8.700000000003009770e-01 5.337602892758700364e+02
8.900000000003005507e-01 5.499944955363996542e+02
9.100000000003001244e-01 5.521399542236974867e+02
9.300000000002996980e-01 5.649214415918676195e+02
9.500000000002992717e-01 5.719842869974796713e+02
9.700000000002988454e-01 5.791568630290296369e+02
9.900000000002984191e-01 5.890794753665763892e+02
1.010000000000297993e+00 5.947390628913999535e+02
1.030000000000297566e+00 6.015336048636291935e+02
1.050000000000297140e+00 6.112804989650808238e+02
1.070000000000296714e+00 6.202068080448060527e+02
1.090000000000296287e+00 6.237045143469675850e+02
1.110000000000295861e+00 6.300134951997333701e+02
1.130000000000295435e+00 6.336361563973125612e+02
1.150000000000295008e+00 6.412231179280354354e+02
1.170000000000294582e+00 6.474933270864398764e+02
1.190000000000294156e+00 6.529723454584448064e+02
1.210000000000293729e+00 6.581199912564098895e+02
1.230000000000293303e+00 6.609079571670025643e+02
1.250000000000292877e+00 6.658582256905028771e+02
1.270000000000292451e+00 6.726883498700005930e+02
1.290000000000292024e+00 6.700439449034947756e+02
1.310000000000291598e+00 6.782603252218902981e+02
1.330000000000291172e+00 6.817129761627660400e+02
1.350000000000290745e+00 6.797699591013450799e+02
1.370000000000290319e+00 6.862269497743282045e+02
1.390000000000289893e+00 6.882185294643063571e+02
1.410000000000289466e+00 6.838569401610931209e+02
1.430000000000289040e+00 6.923120402666829705e+02
1.450000000000288614e+00 6.939841273422310906e+02
1.470000000000288187e+00 6.930278579171880438e+02
1.490000000000287761e+00 6.939287794143109522e+02
1.510000000000287335e+00 6.896449474537429296e+02
1.530000000000286908e+00 6.936073647448602060e+02
1.550000000000286482e+00 6.943159663107936694e+02
1.570000000000286056e+00 6.907485696467944081e+02
1.590000000000285629e+00 6.919280942963898724e+02
1.610000000000285203e+00 6.913336702384834780e+02
1.630000000000284777e+00 6.867232346008489685e+02
1.650000000000284350e+00 6.895408347570495380e+02
1.670000000000283924e+00 6.814734877845504570e+02
1.690000000000283498e+00 6.843974397304331205e+02
1.710000000000283071e+00 6.847512705593960618e+02
1.730000000000282645e+00 6.801603797373984435e+02
1.750000000000282219e+00 6.750413863635109237e+02
1.770000000000281792e+00 6.687079784480255285e+02
1.790000000000281366e+00 6.679928808308942507e+02
1.810000000000280940e+00 6.624660218594569869e+02
1.830000000000280513e+00 6.627088604408332912e+02
1.850000000000280087e+00 6.567680156095834718e+02
1.870000000000279661e+00 6.533105094563829880e+02
1.890000000000279234e+00 6.455375713964954230e+02
1.910000000000278808e+00 6.465566044738067149e+02
1.930000000000278382e+00 6.359720836222356866e+02
1.950000000000277955e+00 6.352735481336325165e+02
1.970000000000277529e+00 6.300044544285941583e+02
1.990000000000277103e+00 6.249858226411655551e+02
2.010000000000276899e+00 6.182801012951284747e+02
2.030000000000276472e+00 6.118241055947163431e+02
2.050000000000276046e+00 6.103613470552506897e+02
2.070000000000275620e+00 5.978132599271864365e+02
2.090000000000275193e+00 5.956867615912181009e+02
2.110000000000274767e+00 5.868948317771507845e+02
2.130000000000274341e+00 5.813250507833821530e+02
2.150000000000273914e+00 5.762371968701371543e+02
2.170000000000273488e+00 5.701424835056171787e+02
2.190000000000273062e+00 5.608738908940017609e+02
2.210000000000272635e+00 5.541214699406646105e+02
2.230000000000272209e+00 5.489111709850976695e+02
2.250000000000271783e+00 5.440030874651574777e+02
2.270000000000271356e+00 5.325913167049861840e+02
2.290000000000270930e+00 5.287377422400769547e+02
2.310000000000270504e+00 5.195679156909391168e+02
2.330000000000270077e+00 5.130844851238279034e+02
2.350000000000269651e+00 5.090219174202856607e+02
2.370000000000269225e+00 4.992556980463883178e+02
2.390000000000268798e+00 4.948655327879045558e+02
2.410000000000268372e+00 4.863181658176164888e+02
2.430000000000267946e+00 4.785432571891890916e+02
2.450000000000267519e+00 4.735191566974782518e+02
2.470000000000267093e+00 4.629720346466958745e+02
2.490000000000266667e+00 4.582724351163520851e+02
2.510000000000266240e+00 4.520851194370968642e+02
2.530000000000265814e+00 4.436584591655009149e+02
2.550000000000265388e+00 4.403211732299019445e+02
2.570000000000264961e+00 4.295522850205144323e+02
2.590000000000264535e+00 4.247217478641180151e+02
2.610000000000264109e+00 4.189663885535822487e+02
2.630000000000263682e+00 4.105408212477199186e+02
2.650000000000263256e+00 4.035122670084771812e+02
2.670000000000262830e+00 3.968352461110034710e+02
2.690000000000262403e+00 3.924143942890648304e+02
2.710000000000261977e+00 3.841329628722750726e+02
2.730000000000261551e+00 3.773177256078333812e+02
2.750000000000261124e+00 3.727667452695757788e+02
2.770000000000260698e+00 3.660441726928128219e+02
2.790000000000260272e+00 3.595590031401123952e+02
2.810000000000259845e+00 3.536016164605462677e+02
2.830000000000259419e+00 3.497665957819368714e+02
2.850000000000258993e+00 3.425750696716957009e+02
2.870000000000258567e+00 3.366963409476572338e+02
2.890000000000258140e+00 3.302083448019901653e+02
2.910000000000257714e+00 3.249461713535001195e+02
2.930000000000257288e+00 3.183067989406143283e+02
2.950000000000256861e+00 3.123437359886011109e+02
2.970000000000256435e+00 3.063502055599880691e+02
2.990000000000256009e+00 3.017324839531019052e+02
3.010000000000255582e+00 2.980221090645080722e+02
3.030000000000255156e+00 2.930481465916686261e+02
3.050000000000254730e+00 2.875276784369267489e+02
3.070000000000254303e+00 2.821443652082905373e+02
3.090000000000253877e+00 2.775685726189989282e+02
3.110000000000253451e+00 2.712453452596580519e+02
3.130000000000253024e+00 2.674602912915423190e+02
3.150000000000252598e+00 2.633577108141138865e+02
3.170000000000252172e+00 2.580940799127415630e+02
3.190000000000251745e+00 2.549258528224643499e+02
3.210000000000251319e+00 2.481659393998322400e+02
3.230000000000250893e+00 2.447902837799248346e+02
3.250000000000250466e+00 2.413246596629652174e+02
3.270000000000250040e+00 2.362128311733529529e+02
3.290000000000249614e+00 2.317135877165215447e+02
3.310000000000249187e+00 2.279214990570509940e+02
3.330000000000248761e+00 2.235048951937722563e+02
3.350000000000248335e+00 2.193232314183699714e+02
3.370000000000247908e+00 2.176012549101690183e+02
3.390000000000247482e+00 2.124411675089739902e+02
3.410000000000247056e+00 2.078296236134324886e+02
3.430000000000246629e+00 2.047333777537615163e+02
3.450000000000246203e+00 2.020173260326201898e+02
3.470000000000245777e+00 1.979030354301009709e+02
3.490000000000245350e+00 1.934192242963533772e+02
3.510000000000244924e+00 1.910978533864092981e+02
3.530000000000244498e+00 1.881820659676191951e+02
3.550000000000244071e+00 1.857894242176691932e+02
3.570000000000243645e+00 1.814724905277627727e+02
3.590000000000243219e+00 1.787619131030587312e+02
3.610000000000242792e+00 1.751739718515561037e+02
3.630000000000242366e+00 1.730872008101712822e+02
3.650000000000241940e+00 1.701753417707327287e+02
3.670000000000241513e+00 1.666295749266393784e+02
3.690000000000241087e+00 1.638979098825465712e+02
3.710000000000240661e+00 1.609648635985222995e+02
3.730000000000240234e+00 1.596701381682198360e+02
3.750000000000239808e+00 1.555617223275620233e+02
3.770000000000239382e+00 1.535700621430942476e+02
3.790000000000238956e+00 1.504967758627161629e+02
3.810000000000238529e+00 1.481294690369072953e+02
3.830000000000238103e+00 1.455033105713869759e+02
3.850000000000237677e+00 1.440202398975937115e+02
3.870000000000237250e+00 1.412119618641804948e+02
3.890000000000236824e+00 1.391120559900191438e+02
3.910000000000236398e+00 1.374473266634106778e+02
3.930000000000235971e+00 1.344345910505296331e+02
3.950000000000235545e+00 1.325443693709673028e+02
3.970000000000235119e+00 1.306846363041382801e+02
3.990000000000234692e+00 1.286689389509186299e+02
4.010000000000234266e+00 1.260440442237679548e+02
4.030000000000233840e+00 1.237538772016998365e+02
4.050000000000233413e+00 1.233206325192863773e+02
4.070000000000232987e+00 1.201667468084094850e+02
4.090000000000232561e+00 1.182629562108030683e+02
4.110000000000232134e+00 1.167975309355765319e+02
4.130000000000231708e+00 1.149919900231411418e+02
4.150000000000231282e+00 1.138970728721021430e+02
4.170000000000230855e+00 1.120875035754192197e+02
4.190000000000230429e+00 1.098545494592305971e+02
4.210000000000230003e+00 1.083474906928728103e+02
4.230000000000229576e+00 1.070990241976632262e+02
4.250000000000229150e+00 1.054691841085081165e+02
4.270000000000228724e+00 1.054326130859655279e+02
4.290000000000228297e+00 1.029294792798223881e+02
4.310000000000227871e+00 1.010618047403275881e+02
4.330000000000227445e+00 9.939870366082740816e+01
4.350000000000227018e+00 9.806001601099129061e+01
4.370000000000226592e+00 9.711001360637041557e+01
4.390000000000226166e+00 9.597892046244025721e+01
4.410000000000225739e+00 9.412011441398387035e+01
4.430000000000225313e+00 9.367460488576615774e+01
4.450000000000224887e+00 9.127243380020540542e+01
4.470000000000224460e+00 9.090160025245570807e+01
4.490000000000224034e+00 8.946516180559724774e+01
4.510000000000223608e+00 8.840722222175728007e+01
4.530000000000223181e+00 8.736978820096726395e+01
4.550000000000222755e+00 8.656449091098659210e+01
4.570000000000222329e+00 8.494255437507877105e+01
4.590000000000221902e+00 8.391042945827054211e+01
4.610000000000221476e+00 8.261661073350049378e+01
4.630000000000221050e+00 8.225761358854582284e+01
4.650000000000220624e+00 8.076884498551856950e+01
4.670000000000220197e+00 7.962172446709189444e+01
4.690000000000219771e+00 7.904488213028984944e+01
4.710000000000219345e+00 7.766518528109034492e+01
4.730000000000218918e+00 7.665658016585055634e+01
4.750000000000218492e+00 7.620800146673762754e+01
4.770000000000218066e+00 7.508647835821686556e+01
4.790000000000217639e+00 7.327818124526635302e+01
4.810000000000217213e+00 7.325234499739083560e+01
4.830000000000216787e+00 7.193409127814342696e+01
4.850000000000216360e+00 7.041958884536406060e+01
4.870000000000215934e+00 7.096483504707400414e+01
4.890000000000215508e+00 6.946395067330954021e+01
4.910000000000215081e+00 6.884309620205712577e+01
4.930000000000214655e+00 6.771855026194320715e+01
4.950000000000214229e+00 6.719801162083535928e+01
4.970000000000213802e+00 6.677011286857685946e+01
4.990000000000213376e+00 6.562555828625308152e+01
5.010000000000212950e+00 6.531700091715038070e+01
5.030000000000212523e+00 6.379546400134696427e+01
5.050000000000212097e+00 6.324247021047128925e+01
5.070000000000211671e+00 6.190588044360521280e+01
5.090000000000211244e+00 6.174071537193212578e+01
5.110000000000210818e+00 6.088240931625938401e+01
5.130000000000210392e+00 6.090001549967207950e+01
5.150000000000209965e+00 5.965479793831183031e+01
5.170000000000209539e+00 5.849443173051658817e+01
5.190000000000209113e+00 5.827153236034498462e+01
5.210000000000208686e+00 5.736885367899448340e+01
5.230000000000208260e+00 5.673033616834815263e+01
5.250000000000207834e+00 5.632723521546937206e+01
5.270000000000207407e+00 5.573643878364002546e+01
5.290000000000206981e+00 5.505046538905082798e+01
5.310000000000206555e+00 5.431759023580553247e+01
5.330000000000206128e+00 5.394996688268775387e+01
5.350000000000205702e+00 5.309724232163854651e+01
5.370000000000205276e+00 5.266249662737032367e+01
5.390000000000204849e+00 5.209303925573401983e+01
5.410000000000204423e+00 5.118344569572369807e+01
5.430000000000203997e+00 5.139673537729724018e+01
5.450000000000203570e+00 5.034700766927868187e+01
5.470000000000203144e+00 4.965297034371374707e+01
5.490000000000202718e+00 4.935005085671097191e+01
5.510000000000202292e+00 4.827043355242410883e+01
5.530000000000201865e+00 4.762182530614881415e+01
5.550000000000201439e+00 4.683642904176590349e+01
5.570000000000201013e+00 4.646003490537240310e+01
5.590000000000200586e+00 4.660245489426419141e+01
5.610000000000200160e+00 4.548434232942776134e+01
5.630000000000199734e+00 4.482802597636664643e+01
5.650000000000199307e+00 4.498661354966109371e+01
5.670000000000198881e+00 4.425781713645132953e+01
5.690000000000198455e+00 4.377665062419399078e+01
5.710000000000198028e+00 4.283027852406255676e+01
5.730000000000197602e+00 4.268964997222693825e+01
5.750000000000197176e+00 4.242473483101941412e+01
5.770000000000196749e+00 4.174172033968783069e+01
5.790000000000196323e+00 4.110501914358115982e+01
5.810000000000195897e+00 4.078773947453833415e+01
5.830000000000195470e+00 4.049744036497283162e+01
5.850000000000195044e+00 3.989389690798240906e+01
5.870000000000194618e+00 3.938344074868115996e+01
5.890000000000194191e+00 3.892446809538199659e+01
5.910000000000193765e+00 3.843137009475348265e+01
5.930000000000193339e+00 3.799473558418619490e+01
5.950000000000192912e+00 3.782956730857650030e+01
5.970000000000192486e+00 3.737002501297533996e+01
5.990000000000192060e+00 3.651141900181726641e+01
6.010000000000191633e+00 3.615343253248860123e+01
6.030000000000191207e+00 3.612278173623497679e+01
6.050000000000190781e+00 3.549378233161719720e+01
6.070000000000190354e+00 3.503892523866632303e+01
6.090000000000189928e+00 3.473792806490577334e+01
6.110000000000189502e+00 3.413919449754558855e+01
6.130000000000189075e+00 3.421389561066836649e+01
6.150000000000188649e+00 3.339036600614446115e+01
6.170000000000188223e+00 3.297432495528735785e+01
6.190000000000187796e+00 3.249148874881106508e+01
6.210000000000187370e+00 3.215126910334987542e+01
6.230000000000186944e+00 3.205887587748424750e+01
6.250000000000186517e+00 3.141701712105914979e+01
6.270000000000186091e+00 3.153429298105778145e+01
6.290000000000185665e+00 3.102661884728403408e+01
6.310000000000185238e+00 3.075331367058313958e+01
6.330000000000184812e+00 3.015784586324192063e+01
6.350000000000184386e+00 2.981044721272306575e+01
6.370000000000183960e+00 2.941762703494516629e+01
6.390000000000183533e+00 2.903568265413536409e+01
6.410000000000183107e+00 2.865782793291522879e+01
6.430000000000182681e+00 2.844005986095779548e+01
6.450000000000182254e+00 2.815796807425620329e+01
6.470000000000181828e+00 2.800670379018953682e+01
6.490000000000181402e+00 2.748945327779656367e+01
6.510000000000180975e+00 2.755642984295583986e+01
6.530000000000180549e+00 2.721439623054903478e+01
6.550000000000180123e+00 2.687399198695661795e+01
6.570000000000179696e+00 2.619679163293611879e+01
6.590000000000179270e+00 2.611834998974061861e+01
6.610000000000178844e+00 2.591077762234305126e+01
6.630000000000178417e+00 2.580143311192915689e+01
6.650000000000177991e+00 2.540776062853941397e+01
6.670000000000177565e+00 2.501145454473186547e+01
6.690000000000177138e+00 2.486768346925869011e+01
6.710000000000176712e+00 2.451679451859229530e+01
6.730000000000176286e+00 2.451178099733192539e+01
6.750000000000175859e+00 2.409390595770561205e+01
6.770000000000175433e+00 2.393908566809979632e+01
6.790000000000175007e+00 2.348253824732420014e+01
6.810000000000174580e+00 2.335530809069364722e+01
6.830000000000174154e+00 2.311895270061606666e+01
6.850000000000173728e+00 2.332689573320288901e+01
6.870000000000173301e+00 2.266863050825059389e+01
6.890000000000172875e+00 2.250281008923549919e+01
6.910000000000172449e+00 2.223786988760397065e+01
6.930000000000172022e+00 2.208935623901795609e+01
6.950000000000171596e+00 2.213524023873264568e+01
6.970000000000171170e+00 2.177300436026678199e+01
6.990000000000170743e+00 2.158802224273395254e+01
7.010000000000170317e+00 2.135277295530783093e+01
7.030000000000169891e+00 2.127629482926312932e+01
7.050000000000169464e+00 2.116651661839922482e+01
7.070000000000169038e+00 2.090653433274253103e+01
7.090000000000168612e+00 2.086741894214152282e+01
7.110000000000168185e+00 2.060765010556994881e+01
7.130000000000167759e+00 2.046217603131024276e+01
7.150000000000167333e+00 2.032553382057716718e+01
7.170000000000166906e+00 2.012436897758955823e+01
7.190000000000166480e+00 1.999673191067294198e+01
7.210000000000166054e+00 1.994580784222264214e+01
7.230000000000165628e+00 1.971154790764316189e+01
7.250000000000165201e+00 1.973542212330098522e+01
7.270000000000164775e+00 1.948422883025769181e+01
7.290000000000164349e+00 1.943596325561689753e+01
7.310000000000163922e+00 1.925734952127248434e+01
7.330000000000163496e+00 1.917915810394711684e+01
7.350000000000163070e+00 1.905166805738016222e+01
7.370000000000162643e+00 1.913914272107849612e+01
7.390000000000162217e+00 1.888515260119664418e+01
7.410000000000161791e+00 1.865579262585040610e+01
7.430000000000161364e+00 1.857554437406791337e+01
7.450000000000160938e+00 1.863053345523594828e+01
7.470000000000160512e+00 1.861925888235643711e+01
7.490000000000160085e+00 1.836115888853918676e+01
7.510000000000159659e+00 1.843544796830562404e+01
7.530000000000159233e+00 1.829845797505713634e+01
7.550000000000158806e+00 1.830115373004418799e+01
7.570000000000158380e+00 1.826692979089516911e+01
7.590000000000157954e+00 1.819784745253850744e+01
7.610000000000157527e+00 1.823955024748682519e+01
7.630000000000157101e+00 1.809517068924114724e+01
7.650000000000156675e+00 1.790499320885924561e+01
7.670000000000156248e+00 1.802249795843831137e+01
7.690000000000155822e+00 1.790588123668921128e+01
7.710000000000155396e+00 1.788603477610958947e+01
7.730000000000154969e+00 1.794541353635568726e+01
7.750000000000154543e+00 1.788171258973097721e+01
7.770000000000154117e+00 1.775843781060059712e+01
7.790000000000153690e+00 1.767071052673840725e+01
7.810000000000153264e+00 1.758158089073006636e+01
7.830000000000152838e+00 1.783108702107113075e+01
7.850000000000152411e+00 1.778845934059757283e+01
7.870000000000151985e+00 1.766556949271584287e+01
7.890000000000151559e+00 1.778520547582357025e+01
7.910000000000151132e+00 1.773522759203240540e+01
7.930000000000150706e+00 1.764702198107009679e+01
7.950000000000150280e+00 1.766073469648093663e+01
7.970000000000149853e+00 1.779516733860525690e+01
