# Redshift		Merger Rate Density [Gpc^-3yr^-1]
1.000000000031931770e-02 6.961344621159868495e+01
3.000000000031888964e-02 7.326543475245223647e+01
5.000000000031846331e-02 7.677650585394900418e+01
7.000000000031804392e-02 8.065940731453756030e+01
9.000000000031761760e-02 8.413352776341595529e+01
1.100000000003171913e-01 8.850965469176024669e+01
1.300000000003167511e-01 9.193347015328366467e+01
1.500000000003163247e-01 9.608029216832910890e+01
1.700000000003158984e-01 1.002890356229754616e+02
1.900000000003154721e-01 1.043115796824291834e+02
2.100000000003150458e-01 1.085323426665347597e+02
2.300000000003146194e-01 1.131332857540453318e+02
2.500000000003141931e-01 1.172867953638386496e+02
2.700000000003137668e-01 1.222281300038493583e+02
2.900000000003133405e-01 1.270305132918031745e+02
3.100000000003129141e-01 1.314376224774369177e+02
3.300000000003124878e-01 1.365160935932342170e+02
3.500000000003120615e-01 1.414380031882004687e+02
3.700000000003116352e-01 1.465911696251368141e+02
3.900000000003112088e-01 1.514990076107730488e+02
4.100000000003107825e-01 1.572284645046042044e+02
4.300000000003103562e-01 1.626974593844336709e+02
4.500000000003099299e-01 1.678742818861824162e+02
4.700000000003095035e-01 1.734662188498629973e+02
4.900000000003090772e-01 1.790883328710396256e+02
5.100000000003086509e-01 1.848398265193109467e+02
5.300000000003082246e-01 1.909989944562135520e+02
5.500000000003077982e-01 1.972102513836435094e+02
5.700000000003073719e-01 2.028022822934297551e+02
5.900000000003069456e-01 2.088977196561359619e+02
6.100000000003065193e-01 2.149946412254588211e+02
6.300000000003060929e-01 2.211612505124285804e+02
6.500000000003056666e-01 2.278238188300227023e+02
6.700000000003052403e-01 2.346335095622774247e+02
6.900000000003048140e-01 2.400093278691713579e+02
7.100000000003043876e-01 2.468994690124154374e+02
7.300000000003039613e-01 2.533724433136802929e+02
7.500000000003035350e-01 2.604289212594476339e+02
7.700000000003031086e-01 2.666004069024715477e+02
7.900000000003026823e-01 2.738616231411286890e+02
8.100000000003022560e-01 2.798614558144537909e+02
8.300000000003018297e-01 2.869336788720191294e+02
8.500000000003014033e-01 2.942599458912334853e+02
8.700000000003009770e-01 3.010641524365595956e+02
8.900000000003005507e-01 3.075660592207046307e+02
9.100000000003001244e-01 3.155577120979081087e+02
9.300000000002996980e-01 3.217565638023115184e+02
9.500000000002992717e-01 3.289918056854448878e+02
9.700000000002988454e-01 3.355750298562630860e+02
9.900000000002984191e-01 3.423104005550570719e+02
1.010000000000297993e+00 3.494482975000362330e+02
1.030000000000297566e+00 3.563892268686080342e+02
1.050000000000297140e+00 3.634160619499970153e+02
1.070000000000296714e+00 3.700507524505044898e+02
1.090000000000296287e+00 3.773779433128544838e+02
1.110000000000295861e+00 3.844973725805458002e+02
1.130000000000295435e+00 3.903629149743062499e+02
1.150000000000295008e+00 3.981472921978200930e+02
1.170000000000294582e+00 4.044270025421411674e+02
1.190000000000294156e+00 4.113426440388681726e+02
1.210000000000293729e+00 4.174867429671306809e+02
1.230000000000293303e+00 4.232887984921932230e+02
1.250000000000292877e+00 4.308370819732822383e+02
1.270000000000292451e+00 4.363395450597424770e+02
1.290000000000292024e+00 4.424740252723897811e+02
1.310000000000291598e+00 4.495760216966694429e+02
1.330000000000291172e+00 4.546307733112166716e+02
1.350000000000290745e+00 4.586615068603537111e+02
1.370000000000290319e+00 4.662516676355596701e+02
1.390000000000289893e+00 4.716011244957922486e+02
1.410000000000289466e+00 4.755516258818276469e+02
1.430000000000289040e+00 4.818598179736795259e+02
1.450000000000288614e+00 4.862877103576215632e+02
1.470000000000288187e+00 4.917819236760591934e+02
1.490000000000287761e+00 4.948891925798249645e+02
1.510000000000287335e+00 5.001081488097419196e+02
1.530000000000286908e+00 5.043311614986246241e+02
1.550000000000286482e+00 5.076899963872789954e+02
1.570000000000286056e+00 5.129969147083571670e+02
1.590000000000285629e+00 5.159051906608858644e+02
1.610000000000285203e+00 5.191616922919532726e+02
1.630000000000284777e+00 5.220292960442376398e+02
1.650000000000284350e+00 5.242985000119160759e+02
1.670000000000283924e+00 5.280097245259507872e+02
1.690000000000283498e+00 5.296548394574496115e+02
1.710000000000283071e+00 5.323049480026297715e+02
1.730000000000282645e+00 5.350696679759670360e+02
1.750000000000282219e+00 5.355611568220029994e+02
1.770000000000281792e+00 5.378362968167152758e+02
1.790000000000281366e+00 5.388906455142308687e+02
1.810000000000280940e+00 5.410020338571852108e+02
1.830000000000280513e+00 5.420081936583541165e+02
1.850000000000280087e+00 5.446892676053496416e+02
1.870000000000279661e+00 5.432783814728453535e+02
1.890000000000279234e+00 5.438719887985845389e+02
1.910000000000278808e+00 5.467950444865574582e+02
1.930000000000278382e+00 5.493001241581811200e+02
1.950000000000277955e+00 5.522688216769607834e+02
1.970000000000277529e+00 5.483060302944513751e+02
1.990000000000277103e+00 5.461460516352967716e+02
2.010000000000276899e+00 5.435640137792382802e+02
2.030000000000276472e+00 5.411885214900642040e+02
2.050000000000276046e+00 5.395072648259915695e+02
2.070000000000275620e+00 5.380941462433604556e+02
2.090000000000275193e+00 5.386312877710896601e+02
2.110000000000274767e+00 5.387130280633076609e+02
2.130000000000274341e+00 5.312578498861453227e+02
2.150000000000273914e+00 5.314728346223130302e+02
2.170000000000273488e+00 5.258723639957322575e+02
2.190000000000273062e+00 5.205600973483318512e+02
2.210000000000272635e+00 5.162240846908505318e+02
2.230000000000272209e+00 5.086888074421390797e+02
2.250000000000271783e+00 5.015716083010472630e+02
2.270000000000271356e+00 4.946265288583071538e+02
2.290000000000270930e+00 4.877722433887037710e+02
2.310000000000270504e+00 4.820707166409104047e+02
2.330000000000270077e+00 4.798202941894659830e+02
2.350000000000269651e+00 4.736608714444915336e+02
2.370000000000269225e+00 4.702312411142929705e+02
2.390000000000268798e+00 4.677850716575153456e+02
2.410000000000268372e+00 4.615102204612407490e+02
2.430000000000267946e+00 4.558789068839679430e+02
2.450000000000267519e+00 4.471386119976051532e+02
2.470000000000267093e+00 4.433932217413751573e+02
2.490000000000266667e+00 4.376348729388756169e+02
2.510000000000266240e+00 4.326619778178041997e+02
2.530000000000265814e+00 4.245435087253585493e+02
2.550000000000265388e+00 4.181366572217268072e+02
2.570000000000264961e+00 4.127223704597835194e+02
2.590000000000264535e+00 4.072372644885713839e+02
2.610000000000264109e+00 4.013402898527796197e+02
2.630000000000263682e+00 3.967421185364985377e+02
2.650000000000263256e+00 3.912123602435946736e+02
2.670000000000262830e+00 3.860905300512154668e+02
2.690000000000262403e+00 3.805526755918303365e+02
2.710000000000261977e+00 3.752319816173014715e+02
2.730000000000261551e+00 3.699512060964829061e+02
2.750000000000261124e+00 3.647552679212986959e+02
2.770000000000260698e+00 3.590914403907709129e+02
2.790000000000260272e+00 3.543066395434667015e+02
2.810000000000259845e+00 3.482983951666093390e+02
2.830000000000259419e+00 3.437855857660269407e+02
2.850000000000258993e+00 3.389953685985463494e+02
2.870000000000258567e+00 3.335637667521173739e+02
2.890000000000258140e+00 3.280734125113032746e+02
2.910000000000257714e+00 3.230870216591323469e+02
2.930000000000257288e+00 3.177461333650767870e+02
2.950000000000256861e+00 3.130275340637289787e+02
2.970000000000256435e+00 3.081227726714434993e+02
2.990000000000256009e+00 3.035589139917067882e+02
3.010000000000255582e+00 2.982710089751102487e+02
3.030000000000255156e+00 2.937063233581280315e+02
3.050000000000254730e+00 2.889404109466584032e+02
3.070000000000254303e+00 2.842906622540195940e+02
3.090000000000253877e+00 2.798867899986132670e+02
3.110000000000253451e+00 2.748883411423548750e+02
3.130000000000253024e+00 2.705945270401429070e+02
3.150000000000252598e+00 2.660584747741054343e+02
3.170000000000252172e+00 2.613956425276310256e+02
3.190000000000251745e+00 2.570866355634346974e+02
3.210000000000251319e+00 2.533293426469039957e+02
3.230000000000250893e+00 2.486214630308222411e+02
3.250000000000250466e+00 2.446336637968977357e+02
3.270000000000250040e+00 2.405944679987352401e+02
3.290000000000249614e+00 2.364536213297583913e+02
3.310000000000249187e+00 2.323339166595416714e+02
3.330000000000248761e+00 2.286432569086041440e+02
3.350000000000248335e+00 2.245762389746719521e+02
3.370000000000247908e+00 2.209930479987997671e+02
3.390000000000247482e+00 2.171474357946840712e+02
3.410000000000247056e+00 2.138244950395692285e+02
3.430000000000246629e+00 2.103150156433482323e+02
3.450000000000246203e+00 2.072962945385851015e+02
3.470000000000245777e+00 2.041463511619943745e+02
3.490000000000245350e+00 2.008109582953845518e+02
3.510000000000244924e+00 1.966991561425457462e+02
3.530000000000244498e+00 1.936269924373333424e+02
3.550000000000244071e+00 1.910482134633325586e+02
3.570000000000243645e+00 1.883140633366617749e+02
3.590000000000243219e+00 1.863520220498146784e+02
3.610000000000242792e+00 1.829192683022790504e+02
3.630000000000242366e+00 1.793925451028786142e+02
3.650000000000241940e+00 1.754375275363635183e+02
3.670000000000241513e+00 1.718820276502734714e+02
3.690000000000241087e+00 1.688390612502629153e+02
3.710000000000240661e+00 1.652692624063598146e+02
3.730000000000240234e+00 1.622119051531591651e+02
3.750000000000239808e+00 1.586815001493318107e+02
3.770000000000239382e+00 1.564387686178870069e+02
3.790000000000238956e+00 1.537948605901996757e+02
3.810000000000238529e+00 1.511464574894018256e+02
3.830000000000238103e+00 1.491438296527387877e+02
3.850000000000237677e+00 1.457852749835327018e+02
3.870000000000237250e+00 1.434253253071119047e+02
3.890000000000236824e+00 1.403199049867975816e+02
3.910000000000236398e+00 1.380823017509351303e+02
3.930000000000235971e+00 1.354392671857190464e+02
3.950000000000235545e+00 1.330513093540734246e+02
3.970000000000235119e+00 1.306100235203311968e+02
3.990000000000234692e+00 1.275568605729918232e+02
4.010000000000234266e+00 1.247347387323125076e+02
4.030000000000233840e+00 1.226167494429328571e+02
4.050000000000233413e+00 1.201880236737694077e+02
4.070000000000232987e+00 1.175715587000319431e+02
4.090000000000232561e+00 1.152074215546130631e+02
4.110000000000232134e+00 1.130687754478054927e+02
4.130000000000231708e+00 1.109732722354436874e+02
4.150000000000231282e+00 1.088281181566245692e+02
4.170000000000230855e+00 1.071909888968539661e+02
4.190000000000230429e+00 1.051791114315496145e+02
4.210000000000230003e+00 1.033121103662091969e+02
4.230000000000229576e+00 1.015354559173839419e+02
4.250000000000229150e+00 9.977109829902988736e+01
4.270000000000228724e+00 9.820000355590036634e+01
4.290000000000228297e+00 9.650431646121789697e+01
4.310000000000227871e+00 9.448985765724690111e+01
4.330000000000227445e+00 9.308823224832192977e+01
4.350000000000227018e+00 9.128323961398091058e+01
4.370000000000226592e+00 8.974234076358379752e+01
4.390000000000226166e+00 8.818517287452080211e+01
4.410000000000225739e+00 8.682713667815227154e+01
4.430000000000225313e+00 8.524187829827086205e+01
4.450000000000224887e+00 8.413671329543868183e+01
4.470000000000224460e+00 8.312942373874223279e+01
4.490000000000224034e+00 8.167938341661601953e+01
4.510000000000223608e+00 8.011896361815371392e+01
4.530000000000223181e+00 7.879744324782519982e+01
4.550000000000222755e+00 7.718621677864804553e+01
4.570000000000222329e+00 7.616896052466582034e+01
4.590000000000221902e+00 7.506784794861495413e+01
4.610000000000221476e+00 7.395448695911291281e+01
4.630000000000221050e+00 7.339156067583896004e+01
4.650000000000220624e+00 7.153090651535413258e+01
4.670000000000220197e+00 7.031101103183500811e+01
4.690000000000219771e+00 6.900059817814907603e+01
4.710000000000219345e+00 6.730765012710368467e+01
4.730000000000218918e+00 6.616395195541289809e+01
4.750000000000218492e+00 6.496261165256417769e+01
4.770000000000218066e+00 6.399512082019747083e+01
4.790000000000217639e+00 6.252037016721064333e+01
4.810000000000217213e+00 6.151474101092000524e+01
4.830000000000216787e+00 6.040335345084812246e+01
4.850000000000216360e+00 5.943362920455049192e+01
4.870000000000215934e+00 5.831958114855955699e+01
4.890000000000215508e+00 5.764032661592421647e+01
4.910000000000215081e+00 5.670291772525665408e+01
4.930000000000214655e+00 5.613134417645245833e+01
4.950000000000214229e+00 5.461372978894902275e+01
4.970000000000213802e+00 5.391502377817061387e+01
4.990000000000213376e+00 5.293218114737428692e+01
5.010000000000212950e+00 5.169799454329244526e+01
5.030000000000212523e+00 5.138229365505966229e+01
5.050000000000212097e+00 5.034139452834729411e+01
5.070000000000211671e+00 4.935463686122781723e+01
5.090000000000211244e+00 4.868640131060700327e+01
5.110000000000210818e+00 4.759601972949919713e+01
5.130000000000210392e+00 4.693421345540064493e+01
5.150000000000209965e+00 4.556308334234945789e+01
5.170000000000209539e+00 4.513890859012166601e+01
5.190000000000209113e+00 4.441771704896694217e+01
5.210000000000208686e+00 4.352694892551709671e+01
5.230000000000208260e+00 4.296195412310117945e+01
5.250000000000207834e+00 4.242854475822642257e+01
5.270000000000207407e+00 4.184787615073729228e+01
5.290000000000206981e+00 4.103073394471859103e+01
5.310000000000206555e+00 4.027929576682144841e+01
5.330000000000206128e+00 3.971162745290196483e+01
5.350000000000205702e+00 3.879056927033283841e+01
5.370000000000205276e+00 3.853531649135590698e+01
5.390000000000204849e+00 3.792457243723572446e+01
5.410000000000204423e+00 3.725491387198037074e+01
5.430000000000203997e+00 3.707385533252071497e+01
5.450000000000203570e+00 3.614805107466808920e+01
5.470000000000203144e+00 3.568582425064537489e+01
5.490000000000202718e+00 3.484817352264789037e+01
5.510000000000202292e+00 3.427503379280136642e+01
5.530000000000201865e+00 3.366373707718854291e+01
5.550000000000201439e+00 3.295145507670022766e+01
5.570000000000201013e+00 3.245685934122652583e+01
5.590000000000200586e+00 3.203151533327918088e+01
5.610000000000200160e+00 3.140459148211314755e+01
5.630000000000199734e+00 3.091771792804465946e+01
5.650000000000199307e+00 3.040375784200168852e+01
5.670000000000198881e+00 2.994747630468016908e+01
5.690000000000198455e+00 2.950275907270527753e+01
5.710000000000198028e+00 2.888118650024664547e+01
5.730000000000197602e+00 2.863411852058605334e+01
5.750000000000197176e+00 2.829818271311199496e+01
5.770000000000196749e+00 2.785393104395664210e+01
5.790000000000196323e+00 2.725102244889551528e+01
5.810000000000195897e+00 2.689049872754031156e+01
5.830000000000195470e+00 2.655077478018709769e+01
5.850000000000195044e+00 2.612124959790942214e+01
5.870000000000194618e+00 2.577575160914826924e+01
5.890000000000194191e+00 2.532345449828950379e+01
5.910000000000193765e+00 2.522112555390090449e+01
5.930000000000193339e+00 2.475422274698620129e+01
5.950000000000192912e+00 2.438345347206791658e+01
5.970000000000192486e+00 2.399569006120909620e+01
5.990000000000192060e+00 2.350086127079015341e+01
6.010000000000191633e+00 2.310765667204016438e+01
6.030000000000191207e+00 2.264577987889736121e+01
6.050000000000190781e+00 2.237690820020750238e+01
6.070000000000190354e+00 2.216745420025844027e+01
6.090000000000189928e+00 2.165768796518075945e+01
6.110000000000189502e+00 2.170663119081466164e+01
6.130000000000189075e+00 2.109768211116971770e+01
6.150000000000188649e+00 2.084377881836176982e+01
6.170000000000188223e+00 2.028810968303289997e+01
6.190000000000187796e+00 2.006977181532833754e+01
6.210000000000187370e+00 1.972523756365765379e+01
6.230000000000186944e+00 1.937116376972034004e+01
6.250000000000186517e+00 1.897743919412543789e+01
6.270000000000186091e+00 1.879372064961620481e+01
6.290000000000185665e+00 1.867239178489759155e+01
6.310000000000185238e+00 1.822604711688550694e+01
6.330000000000184812e+00 1.799367704657600342e+01
6.350000000000184386e+00 1.766063362493947864e+01
6.370000000000183960e+00 1.758158519903279782e+01
6.390000000000183533e+00 1.726260756302367128e+01
6.410000000000183107e+00 1.706462394656967874e+01
6.430000000000182681e+00 1.683545923540690126e+01
6.450000000000182254e+00 1.667026106417769782e+01
6.470000000000181828e+00 1.651693169701038855e+01
6.490000000000181402e+00 1.632406976924819730e+01
6.510000000000180975e+00 1.606315084796134585e+01
6.530000000000180549e+00 1.566989850605605028e+01
6.550000000000180123e+00 1.555149759843758694e+01
6.570000000000179696e+00 1.530060551740321984e+01
6.590000000000179270e+00 1.496447111609237979e+01
6.610000000000178844e+00 1.479672079697204623e+01
6.630000000000178417e+00 1.481074924900597622e+01
6.650000000000177991e+00 1.451591491784034282e+01
6.670000000000177565e+00 1.425558377530098575e+01
6.690000000000177138e+00 1.415567834489774413e+01
6.710000000000176712e+00 1.408613177179297793e+01
6.730000000000176286e+00 1.382102239583734793e+01
6.750000000000175859e+00 1.347089371900385224e+01
6.770000000000175433e+00 1.315484402152081245e+01
6.790000000000175007e+00 1.309342149699664937e+01
6.810000000000174580e+00 1.283244774990604142e+01
6.830000000000174154e+00 1.266477333390744597e+01
6.850000000000173728e+00 1.240101045572053096e+01
6.870000000000173301e+00 1.234977921359819319e+01
6.890000000000172875e+00 1.221539435739161483e+01
6.910000000000172449e+00 1.207077676833104540e+01
6.930000000000172022e+00 1.193669458182514198e+01
6.950000000000171596e+00 1.177975040857004529e+01
6.970000000000171170e+00 1.161845782085940648e+01
6.990000000000170743e+00 1.149943693458667404e+01
7.010000000000170317e+00 1.144461728520860433e+01
7.030000000000169891e+00 1.115020073265898404e+01
7.050000000000169464e+00 1.101068459530322663e+01
7.070000000000169038e+00 1.097214576328525304e+01
7.090000000000168612e+00 1.077294323264043996e+01
7.110000000000168185e+00 1.066402936112772970e+01
7.130000000000167759e+00 1.047375640424912824e+01
7.150000000000167333e+00 1.038731547909905295e+01
7.170000000000166906e+00 1.028179708132084258e+01
7.190000000000166480e+00 1.008330695800557919e+01
7.210000000000166054e+00 9.989197239180381160e+00
7.230000000000165628e+00 9.972309221948851388e+00
7.250000000000165201e+00 9.794190431072145486e+00
7.270000000000164775e+00 9.672105354152995105e+00
7.290000000000164349e+00 9.442686733455088799e+00
7.310000000000163922e+00 9.336612143093173444e+00
7.330000000000163496e+00 9.278826627922738268e+00
7.350000000000163070e+00 9.129979850613738179e+00
7.370000000000162643e+00 9.026385029216031697e+00
7.390000000000162217e+00 8.926864121536951302e+00
7.410000000000161791e+00 8.924258494151985133e+00
7.430000000000161364e+00 8.718026229097352697e+00
7.450000000000160938e+00 8.619012086048005727e+00
7.470000000000160512e+00 8.599806829163075150e+00
7.490000000000160085e+00 8.553459743058530407e+00
7.510000000000159659e+00 8.337039754672312952e+00
7.530000000000159233e+00 8.240833248832220903e+00
7.550000000000158806e+00 8.095020478392061847e+00
7.570000000000158380e+00 8.062825705836027979e+00
7.590000000000157954e+00 7.951822430151023191e+00
7.610000000000157527e+00 7.847283904553742140e+00
7.630000000000157101e+00 7.766975154524886626e+00
7.650000000000156675e+00 7.697065053297397874e+00
7.670000000000156248e+00 7.703513433169437263e+00
7.690000000000155822e+00 7.505254810304353263e+00
7.710000000000155396e+00 7.509726241877892505e+00
7.730000000000154969e+00 7.325309428790699684e+00
7.750000000000154543e+00 7.315524369656098536e+00
7.770000000000154117e+00 7.185077709798048495e+00
7.790000000000153690e+00 7.132638398777376487e+00
7.810000000000153264e+00 7.112788327823566625e+00
7.830000000000152838e+00 6.894117465785028820e+00
7.850000000000152411e+00 6.884843538514648031e+00
7.870000000000151985e+00 6.793311388788494831e+00
7.890000000000151559e+00 6.748086617782126595e+00
7.910000000000151132e+00 6.669170025279658631e+00
7.930000000000150706e+00 6.610324919789870357e+00
7.950000000000150280e+00 6.532292574093828463e+00
7.970000000000149853e+00 6.485292875317624883e+00
