# Redshift		Merger Rate Density [Gpc^-3yr^-1]
1.000000000031931770e-02 1.068127702633344711e+02
3.000000000031888964e-02 1.119469703182461728e+02
5.000000000031846331e-02 1.175655623763560698e+02
7.000000000031804392e-02 1.231887785793212373e+02
9.000000000031761760e-02 1.290413162013317105e+02
1.100000000003171913e-01 1.351999824112161548e+02
1.300000000003167511e-01 1.413020486517844176e+02
1.500000000003163247e-01 1.476637799946626615e+02
1.700000000003158984e-01 1.540398750795878300e+02
1.900000000003154721e-01 1.605834593115335736e+02
2.100000000003150458e-01 1.674992938643640343e+02
2.300000000003146194e-01 1.742584067775026995e+02
2.500000000003141931e-01 1.810170367565744414e+02
2.700000000003137668e-01 1.886350225463808670e+02
2.900000000003133405e-01 1.958161852830835983e+02
3.100000000003129141e-01 2.034018923807400938e+02
3.300000000003124878e-01 2.105737123129333384e+02
3.500000000003120615e-01 2.189366161609120525e+02
3.700000000003116352e-01 2.265866567503737201e+02
3.900000000003112088e-01 2.343629506202009054e+02
4.100000000003107825e-01 2.431068508726881703e+02
4.300000000003103562e-01 2.510289417788795845e+02
4.500000000003099299e-01 2.591271698177069425e+02
4.700000000003095035e-01 2.677913776640675678e+02
4.900000000003090772e-01 2.766681231289392144e+02
5.100000000003086509e-01 2.858427611235847507e+02
5.300000000003082246e-01 2.946553785614859180e+02
5.500000000003077982e-01 3.046099732190766076e+02
5.700000000003073719e-01 3.132078609519442693e+02
5.900000000003069456e-01 3.228724740042587200e+02
6.100000000003065193e-01 3.329700101270381651e+02
6.300000000003060929e-01 3.419124194264122707e+02
6.500000000003056666e-01 3.524450257291350113e+02
6.700000000003052403e-01 3.622161196307120576e+02
6.900000000003048140e-01 3.717017614288106415e+02
7.100000000003043876e-01 3.822778945868806204e+02
7.300000000003039613e-01 3.925406411743489343e+02
7.500000000003035350e-01 4.032381694481746308e+02
7.700000000003031086e-01 4.132395699340083866e+02
7.900000000003026823e-01 4.247232282758692463e+02
8.100000000003022560e-01 4.350049797188029856e+02
8.300000000003018297e-01 4.454498771680958384e+02
8.500000000003014033e-01 4.576136639086701052e+02
8.700000000003009770e-01 4.671138162925767006e+02
8.900000000003005507e-01 4.786195478940380212e+02
9.100000000003001244e-01 4.907256397230489711e+02
9.300000000002996980e-01 5.011241642085322496e+02
9.500000000002992717e-01 5.112798303012459655e+02
9.700000000002988454e-01 5.241754880552722398e+02
9.900000000002984191e-01 5.340918406070109086e+02
1.010000000000297993e+00 5.445482367741824419e+02
1.030000000000297566e+00 5.561994971437851518e+02
1.050000000000297140e+00 5.673307086214108494e+02
1.070000000000296714e+00 5.787903806715248720e+02
1.090000000000296287e+00 5.899489716681606524e+02
1.110000000000295861e+00 6.005894523845238382e+02
1.130000000000295435e+00 6.112584762714824365e+02
1.150000000000295008e+00 6.222202509058989790e+02
1.170000000000294582e+00 6.328261234533322295e+02
1.190000000000294156e+00 6.445922611606210921e+02
1.210000000000293729e+00 6.538760507730771678e+02
1.230000000000293303e+00 6.635617963860900090e+02
1.250000000000292877e+00 6.755538376503336622e+02
1.270000000000292451e+00 6.846612254722704165e+02
1.290000000000292024e+00 6.956651944815827164e+02
1.310000000000291598e+00 7.057357546328075841e+02
1.330000000000291172e+00 7.146134945198383548e+02
1.350000000000290745e+00 7.227293191644370154e+02
1.370000000000290319e+00 7.328465436467751033e+02
1.390000000000289893e+00 7.413483561788211773e+02
1.410000000000289466e+00 7.501524540106463519e+02
1.430000000000289040e+00 7.586650802749099967e+02
1.450000000000288614e+00 7.670858639172382709e+02
1.470000000000288187e+00 7.764745795781363995e+02
1.490000000000287761e+00 7.848710124384283517e+02
1.510000000000287335e+00 7.924652210105141421e+02
1.530000000000286908e+00 7.986645842405819167e+02
1.550000000000286482e+00 8.058725179016191760e+02
1.570000000000286056e+00 8.150823698864221569e+02
1.590000000000285629e+00 8.210888801761209379e+02
1.610000000000285203e+00 8.293599590092405833e+02
1.630000000000284777e+00 8.370034407116816055e+02
1.650000000000284350e+00 8.457992289846026779e+02
1.670000000000283924e+00 8.480984294280664244e+02
1.690000000000283498e+00 8.610246464073665038e+02
1.710000000000283071e+00 8.658075342128651073e+02
1.730000000000282645e+00 8.736679699046576388e+02
1.750000000000282219e+00 8.692418587966284349e+02
1.770000000000281792e+00 8.648376184567889595e+02
1.790000000000281366e+00 8.634728123026748108e+02
1.810000000000280940e+00 8.632707295440662847e+02
1.830000000000280513e+00 8.622226553700561453e+02
1.850000000000280087e+00 8.621019504716240363e+02
1.870000000000279661e+00 8.628688551577409953e+02
1.890000000000279234e+00 8.640595417926165283e+02
1.910000000000278808e+00 8.644812915312538735e+02
1.930000000000278382e+00 8.667023851604726588e+02
1.950000000000277955e+00 8.733892749445309391e+02
1.970000000000277529e+00 8.692007869723665863e+02
1.990000000000277103e+00 8.667955654384410309e+02
2.010000000000276899e+00 8.631995229277125645e+02
2.030000000000276472e+00 8.577979791170687349e+02
2.050000000000276046e+00 8.568865869576014802e+02
2.070000000000275620e+00 8.524456826364177005e+02
2.090000000000275193e+00 8.524963314604914331e+02
2.110000000000274767e+00 8.492702328872372846e+02
2.130000000000274341e+00 8.462068418609704850e+02
2.150000000000273914e+00 8.435590746839778831e+02
2.170000000000273488e+00 8.366067315179211619e+02
2.190000000000273062e+00 8.300360126041070998e+02
2.210000000000272635e+00 8.249254161408844084e+02
2.230000000000272209e+00 8.136787987866823642e+02
2.250000000000271783e+00 8.063854924451662782e+02
2.270000000000271356e+00 7.935758733330347923e+02
2.290000000000270930e+00 7.848021651386828808e+02
2.310000000000270504e+00 7.780935032211627913e+02
2.330000000000270077e+00 7.715247728286192341e+02
2.350000000000269651e+00 7.643027197639380574e+02
2.370000000000269225e+00 7.571424799849212377e+02
2.390000000000268798e+00 7.525560805997695297e+02
2.410000000000268372e+00 7.437965946626668483e+02
2.430000000000267946e+00 7.346748591744425312e+02
2.450000000000267519e+00 7.253541031002980617e+02
2.470000000000267093e+00 7.157566641084728190e+02
2.490000000000266667e+00 7.090988313456432479e+02
2.510000000000266240e+00 7.012148854055410538e+02
2.530000000000265814e+00 6.907336054928524618e+02
2.550000000000265388e+00 6.822894513062348096e+02
2.570000000000264961e+00 6.732441005276916712e+02
2.590000000000264535e+00 6.663451172097343260e+02
2.610000000000264109e+00 6.563425713328870188e+02
2.630000000000263682e+00 6.492247668409935386e+02
2.650000000000263256e+00 6.408642335207307497e+02
2.670000000000262830e+00 6.326112486580809673e+02
2.690000000000262403e+00 6.243202548212528882e+02
2.710000000000261977e+00 6.158649871149540331e+02
2.730000000000261551e+00 6.076904842437123762e+02
2.750000000000261124e+00 6.000263661126678016e+02
2.770000000000260698e+00 5.916888880611597870e+02
2.790000000000260272e+00 5.833588469758184374e+02
2.810000000000259845e+00 5.750252298119303305e+02
2.830000000000259419e+00 5.680079598152888138e+02
2.850000000000258993e+00 5.599740172127729920e+02
2.870000000000258567e+00 5.525951176614396445e+02
2.890000000000258140e+00 5.450071991690284676e+02
2.910000000000257714e+00 5.369286616959291223e+02
2.930000000000257288e+00 5.300551728451088138e+02
2.950000000000256861e+00 5.224316717875072982e+02
2.970000000000256435e+00 5.136939339377374836e+02
2.990000000000256009e+00 5.055129434091201119e+02
3.010000000000255582e+00 4.982387789219161505e+02
3.030000000000255156e+00 4.918407408134328307e+02
3.050000000000254730e+00 4.835754618569413879e+02
3.070000000000254303e+00 4.772079052227196030e+02
3.090000000000253877e+00 4.699565428002072736e+02
3.110000000000253451e+00 4.634201363614866409e+02
3.130000000000253024e+00 4.578406835861584341e+02
3.150000000000252598e+00 4.494946690330693855e+02
3.170000000000252172e+00 4.459310863606456223e+02
3.190000000000251745e+00 4.376074807959538475e+02
3.210000000000251319e+00 4.322348056903758220e+02
3.230000000000250893e+00 4.263387096561995691e+02
3.250000000000250466e+00 4.202390170147288586e+02
3.270000000000250040e+00 4.136823418126358547e+02
3.290000000000249614e+00 4.062947759542283848e+02
3.310000000000249187e+00 3.973490014566659170e+02
3.330000000000248761e+00 3.890222951364117421e+02
3.350000000000248335e+00 3.797831709529181694e+02
3.370000000000247908e+00 3.735632540779298552e+02
3.390000000000247482e+00 3.662736608734969082e+02
3.410000000000247056e+00 3.605048989113043945e+02
3.430000000000246629e+00 3.536394129899470045e+02
3.450000000000246203e+00 3.482821853870383393e+02
3.470000000000245777e+00 3.425689520703098765e+02
3.490000000000245350e+00 3.376101239579249977e+02
3.510000000000244924e+00 3.314391652627752478e+02
3.530000000000244498e+00 3.260291893723457406e+02
3.550000000000244071e+00 3.214870092150673031e+02
3.570000000000243645e+00 3.174824148366995473e+02
3.590000000000243219e+00 3.136477268527528963e+02
3.610000000000242792e+00 3.089118577625295075e+02
3.630000000000242366e+00 3.035231296864275237e+02
3.650000000000241940e+00 2.973689759505827510e+02
3.670000000000241513e+00 2.910820771635094388e+02
3.690000000000241087e+00 2.857061324221899099e+02
3.710000000000240661e+00 2.808445490989241193e+02
3.730000000000240234e+00 2.755636368399693765e+02
3.750000000000239808e+00 2.707809818257444476e+02
3.770000000000239382e+00 2.665830631775968413e+02
3.790000000000238956e+00 2.621338957434300596e+02
3.810000000000238529e+00 2.581208119875410034e+02
3.830000000000238103e+00 2.543096487750581218e+02
3.850000000000237677e+00 2.506976259936163558e+02
3.870000000000237250e+00 2.452450414475886760e+02
3.890000000000236824e+00 2.409424125107382508e+02
3.910000000000236398e+00 2.364915196483904083e+02
3.930000000000235971e+00 2.324182525099569716e+02
3.950000000000235545e+00 2.286419055731660421e+02
3.970000000000235119e+00 2.251616698147874445e+02
3.990000000000234692e+00 2.206017591266923148e+02
4.010000000000234266e+00 2.163564812235250372e+02
4.030000000000233840e+00 2.120032316511805277e+02
4.050000000000233413e+00 2.085182981892716327e+02
4.070000000000232987e+00 2.049323396424672694e+02
4.090000000000232561e+00 2.007156714642544841e+02
4.110000000000232134e+00 1.979055578490393259e+02
4.130000000000231708e+00 1.945426102623092675e+02
4.150000000000231282e+00 1.914303181534745875e+02
4.170000000000230855e+00 1.879249917762008124e+02
4.190000000000230429e+00 1.850046155676464821e+02
4.210000000000230003e+00 1.821815870764220904e+02
4.230000000000229576e+00 1.792512659473359520e+02
4.250000000000229150e+00 1.749147557734906115e+02
4.270000000000228724e+00 1.713674444529694938e+02
4.290000000000228297e+00 1.683056884462057781e+02
4.310000000000227871e+00 1.643556081688489598e+02
4.330000000000227445e+00 1.609841153803510281e+02
4.350000000000227018e+00 1.570200751238240287e+02
4.370000000000226592e+00 1.549813489349606357e+02
4.390000000000226166e+00 1.521443793690892505e+02
4.410000000000225739e+00 1.491093329639065530e+02
4.430000000000225313e+00 1.464582228586717463e+02
4.450000000000224887e+00 1.440589834308700858e+02
4.470000000000224460e+00 1.420444920978468133e+02
4.490000000000224034e+00 1.394611963277933171e+02
4.510000000000223608e+00 1.374373617729906414e+02
4.530000000000223181e+00 1.350804299037856140e+02
4.550000000000222755e+00 1.322402140906249883e+02
4.570000000000222329e+00 1.295340456606554085e+02
4.590000000000221902e+00 1.277511467830059360e+02
4.610000000000221476e+00 1.257896899333447038e+02
4.630000000000221050e+00 1.242136027852193791e+02
4.650000000000220624e+00 1.215183132412237228e+02
4.670000000000220197e+00 1.194168799064086386e+02
4.690000000000219771e+00 1.168064639022093019e+02
4.710000000000219345e+00 1.140240674451130332e+02
4.730000000000218918e+00 1.118770827698175481e+02
4.750000000000218492e+00 1.095195593219256125e+02
4.770000000000218066e+00 1.078626370775653385e+02
4.790000000000217639e+00 1.054319801110663519e+02
4.810000000000217213e+00 1.035140033582230217e+02
4.830000000000216787e+00 1.014697714787960336e+02
4.850000000000216360e+00 1.002297006501994616e+02
4.870000000000215934e+00 9.813639065260331051e+01
4.890000000000215508e+00 9.633143280854346813e+01
4.910000000000215081e+00 9.501540158627651067e+01
4.930000000000214655e+00 9.344293864253613435e+01
4.950000000000214229e+00 9.131381976319372029e+01
4.970000000000213802e+00 8.975625390126222669e+01
4.990000000000213376e+00 8.795425394552628973e+01
5.010000000000212950e+00 8.561699991372516649e+01
5.030000000000212523e+00 8.394705554967322314e+01
5.050000000000212097e+00 8.244731169738658139e+01
5.070000000000211671e+00 8.060255155404072980e+01
5.090000000000211244e+00 7.886337598284589490e+01
5.110000000000210818e+00 7.720638613067177403e+01
5.130000000000210392e+00 7.536141583571613012e+01
5.150000000000209965e+00 7.326870868704986606e+01
5.170000000000209539e+00 7.192712314576149879e+01
5.190000000000209113e+00 7.031025144816905481e+01
5.210000000000208686e+00 6.887683717141555917e+01
5.230000000000208260e+00 6.773262056213172855e+01
5.250000000000207834e+00 6.629511511344965413e+01
5.270000000000207407e+00 6.500252094838104711e+01
5.290000000000206981e+00 6.396439499198567091e+01
5.310000000000206555e+00 6.242333684581077335e+01
5.330000000000206128e+00 6.139965952295970197e+01
5.350000000000205702e+00 5.980230237491696954e+01
5.370000000000205276e+00 5.883517179162080168e+01
5.390000000000204849e+00 5.811913138526787748e+01
5.410000000000204423e+00 5.659854632936333729e+01
5.430000000000203997e+00 5.616034351664139734e+01
5.450000000000203570e+00 5.463000736701079063e+01
5.470000000000203144e+00 5.390177888545600382e+01
5.490000000000202718e+00 5.241475032834981818e+01
5.510000000000202292e+00 5.107289189408562180e+01
5.530000000000201865e+00 5.017804533704127579e+01
5.550000000000201439e+00 4.889889424622720071e+01
5.570000000000201013e+00 4.788181268507869248e+01
5.590000000000200586e+00 4.685392204304753250e+01
5.610000000000200160e+00 4.609349903364640255e+01
5.630000000000199734e+00 4.487761854320169874e+01
5.650000000000199307e+00 4.360376551967284087e+01
5.670000000000198881e+00 4.242370769233163230e+01
5.690000000000198455e+00 4.196582922729916021e+01
5.710000000000198028e+00 4.066830405689873373e+01
5.730000000000197602e+00 3.978626860275048216e+01
5.750000000000197176e+00 3.906746839549202832e+01
5.770000000000196749e+00 3.807335778366148560e+01
5.790000000000196323e+00 3.736638328636698958e+01
5.810000000000195897e+00 3.648266633613150134e+01
5.830000000000195470e+00 3.589722945150001721e+01
5.850000000000195044e+00 3.514212862847878682e+01
5.870000000000194618e+00 3.436437854569227568e+01
5.890000000000194191e+00 3.354470249338836396e+01
5.910000000000193765e+00 3.317363449123737951e+01
5.930000000000193339e+00 3.237805044957741529e+01
5.950000000000192912e+00 3.182717985829060936e+01
5.970000000000192486e+00 3.118343610435892188e+01
5.990000000000192060e+00 3.040581316012799462e+01
6.010000000000191633e+00 2.964481089932722213e+01
6.030000000000191207e+00 2.885478584926863022e+01
6.050000000000190781e+00 2.845642793089282563e+01
6.070000000000190354e+00 2.781912452415357251e+01
6.090000000000189928e+00 2.729470579015060849e+01
6.110000000000189502e+00 2.688317613711998888e+01
6.130000000000189075e+00 2.600060732936860930e+01
6.150000000000188649e+00 2.564250094327968910e+01
6.170000000000188223e+00 2.473653955058280829e+01
6.190000000000187796e+00 2.415619913885315029e+01
6.210000000000187370e+00 2.348037738433018973e+01
6.230000000000186944e+00 2.292802842392535823e+01
6.250000000000186517e+00 2.236136114228400018e+01
6.270000000000186091e+00 2.191531655054753358e+01
6.290000000000185665e+00 2.159630612511532988e+01
6.310000000000185238e+00 2.097761774424506598e+01
6.330000000000184812e+00 2.048673433049923176e+01
6.350000000000184386e+00 1.997584258782287847e+01
6.370000000000183960e+00 1.971603782223482781e+01
6.390000000000183533e+00 1.944861644837324377e+01
6.410000000000183107e+00 1.895995252312311763e+01
6.430000000000182681e+00 1.844565819088744263e+01
6.450000000000182254e+00 1.833416994831217650e+01
6.470000000000181828e+00 1.795047751985200080e+01
6.490000000000181402e+00 1.764602980346091599e+01
6.510000000000180975e+00 1.736189638546841962e+01
6.530000000000180549e+00 1.673319433519753119e+01
6.550000000000180123e+00 1.650666395661743380e+01
6.570000000000179696e+00 1.613955996930613779e+01
6.590000000000179270e+00 1.567410644889407578e+01
6.610000000000178844e+00 1.531841062066435910e+01
6.630000000000178417e+00 1.537073070970434507e+01
6.650000000000177991e+00 1.485960010227139705e+01
6.670000000000177565e+00 1.467897636879668788e+01
6.690000000000177138e+00 1.440699351929129080e+01
6.710000000000176712e+00 1.420421393546025080e+01
6.730000000000176286e+00 1.378848222770183085e+01
6.750000000000175859e+00 1.349364422213703385e+01
6.770000000000175433e+00 1.299285275013970065e+01
6.790000000000175007e+00 1.284834532119534956e+01
6.810000000000174580e+00 1.240336069556107113e+01
6.830000000000174154e+00 1.215597164627243387e+01
6.850000000000173728e+00 1.196561908338407676e+01
6.870000000000173301e+00 1.180689984543960236e+01
6.890000000000172875e+00 1.162531680042468807e+01
6.910000000000172449e+00 1.137019821564575039e+01
6.930000000000172022e+00 1.118941599475295234e+01
6.950000000000171596e+00 1.098045209638569553e+01
6.970000000000171170e+00 1.077739552658493061e+01
6.990000000000170743e+00 1.057349842243599092e+01
7.010000000000170317e+00 1.055802795757255907e+01
7.030000000000169891e+00 1.021785142265894208e+01
7.050000000000169464e+00 1.001779221098941441e+01
7.070000000000169038e+00 9.949466804815836340e+00
7.090000000000168612e+00 9.658778416044325965e+00
7.110000000000168185e+00 9.540394002273147933e+00
7.130000000000167759e+00 9.295969338283772032e+00
7.150000000000167333e+00 9.205309631579964957e+00
7.170000000000166906e+00 9.077188170842989123e+00
7.190000000000166480e+00 8.921344283462907754e+00
7.210000000000166054e+00 8.796888345208705218e+00
7.230000000000165628e+00 8.771134630633151019e+00
7.250000000000165201e+00 8.463363830842574487e+00
7.270000000000164775e+00 8.367515444218522447e+00
7.290000000000164349e+00 8.072731559834318560e+00
7.310000000000163922e+00 8.066753621208786029e+00
7.330000000000163496e+00 7.958914697593292509e+00
7.350000000000163070e+00 7.717853912443835007e+00
7.370000000000162643e+00 7.619212411434133081e+00
7.390000000000162217e+00 7.525573917194194884e+00
7.410000000000161791e+00 7.495653433852462300e+00
7.430000000000161364e+00 7.316132228063424670e+00
7.450000000000160938e+00 7.202990332873813628e+00
7.470000000000160512e+00 7.126410095726746441e+00
7.490000000000160085e+00 7.095953874438848175e+00
7.510000000000159659e+00 6.872303763574502788e+00
7.530000000000159233e+00 6.798012614911302265e+00
7.550000000000158806e+00 6.653361263024083705e+00
7.570000000000158380e+00 6.613505572078151928e+00
7.590000000000157954e+00 6.539657737212441369e+00
7.610000000000157527e+00 6.432957912876230644e+00
7.630000000000157101e+00 6.355979821235972160e+00
7.650000000000156675e+00 6.219376666541857723e+00
7.670000000000156248e+00 6.288282903346976482e+00
7.690000000000155822e+00 6.036273477893066897e+00
7.710000000000155396e+00 6.053417228714265796e+00
7.730000000000154969e+00 5.895829969655627778e+00
7.750000000000154543e+00 5.904018087386125657e+00
7.770000000000154117e+00 5.734401652005280958e+00
7.790000000000153690e+00 5.727600468317072036e+00
7.810000000000153264e+00 5.650746334711372221e+00
7.830000000000152838e+00 5.496569247947626025e+00
7.850000000000152411e+00 5.454227756704273844e+00
7.870000000000151985e+00 5.390455862643306340e+00
7.890000000000151559e+00 5.379527152451101024e+00
7.910000000000151132e+00 5.308772583888583085e+00
7.930000000000150706e+00 5.238003187814037176e+00
7.950000000000150280e+00 5.186497821748526249e+00
7.970000000000149853e+00 5.115615715288055476e+00
