# Redshift		Merger Rate Density [Gpc^-3yr^-1]
1.000000000031931770e-02 3.457450460106605306e+02
3.000000000031888964e-02 3.636043119370709178e+02
5.000000000031846331e-02 3.760333237038738048e+02
7.000000000031804392e-02 3.937325135682779660e+02
9.000000000031761760e-02 4.112468842089656391e+02
1.100000000003171913e-01 4.279709652084879963e+02
1.300000000003167511e-01 4.434803300854972008e+02
1.500000000003163247e-01 4.620966028553514775e+02
1.700000000003158984e-01 4.799189309227019180e+02
1.900000000003154721e-01 4.990769804101306590e+02
2.100000000003150458e-01 5.204628567525260223e+02
2.300000000003146194e-01 5.377676578400420340e+02
2.500000000003141931e-01 5.591843300490960473e+02
2.700000000003137668e-01 5.792715893540895422e+02
2.900000000003133405e-01 6.018660704973277689e+02
3.100000000003129141e-01 6.252479956725156853e+02
3.300000000003124878e-01 6.433289789735495106e+02
3.500000000003120615e-01 6.670973829961970978e+02
3.700000000003116352e-01 6.902609287643732614e+02
3.900000000003112088e-01 7.117877507619845119e+02
4.100000000003107825e-01 7.370013002573589347e+02
4.300000000003103562e-01 7.588115823254929637e+02
4.500000000003099299e-01 7.809427736538636964e+02
4.700000000003095035e-01 8.090186184742514115e+02
4.900000000003090772e-01 8.261501658689207943e+02
5.100000000003086509e-01 8.561595536751090094e+02
5.300000000003082246e-01 8.795673775266202483e+02
5.500000000003077982e-01 9.072749264618137204e+02
5.700000000003073719e-01 9.240469754141302019e+02
5.900000000003069456e-01 9.563818834731251854e+02
6.100000000003065193e-01 9.740342481458121711e+02
6.300000000003060929e-01 1.002950751507984023e+03
6.500000000003056666e-01 1.028362998571733442e+03
6.700000000003052403e-01 1.051585503175913345e+03
6.900000000003048140e-01 1.073515873892403533e+03
7.100000000003043876e-01 1.099594890538773825e+03
7.300000000003039613e-01 1.123723082342917905e+03
7.500000000003035350e-01 1.148802715012786621e+03
7.700000000003031086e-01 1.167529929639222701e+03
7.900000000003026823e-01 1.195958801289794110e+03
8.100000000003022560e-01 1.213489844297585933e+03
8.300000000003018297e-01 1.241367972344796726e+03
8.500000000003014033e-01 1.255009522427254979e+03
8.700000000003009770e-01 1.278093804053430404e+03
8.900000000003005507e-01 1.306171881534294243e+03
9.100000000003001244e-01 1.320181465677817414e+03
9.300000000002996980e-01 1.339800114991263627e+03
9.500000000002992717e-01 1.357521508587403787e+03
9.700000000002988454e-01 1.377302535217457262e+03
9.900000000002984191e-01 1.393954328334657475e+03
1.010000000000297993e+00 1.410567208834245548e+03
1.030000000000297566e+00 1.421309194675537810e+03
1.050000000000297140e+00 1.442412775012364591e+03
1.070000000000296714e+00 1.454097396357150046e+03
1.090000000000296287e+00 1.468092226927228012e+03
1.110000000000295861e+00 1.487766499459954957e+03
1.130000000000295435e+00 1.490914535721084121e+03
1.150000000000295008e+00 1.502443718503996024e+03
1.170000000000294582e+00 1.515103502471787351e+03
1.190000000000294156e+00 1.519011299290044235e+03
1.210000000000293729e+00 1.534570743600205560e+03
1.230000000000293303e+00 1.537441534427377974e+03
1.250000000000292877e+00 1.546061373902936793e+03
1.270000000000292451e+00 1.548937269591683844e+03
1.290000000000292024e+00 1.558403867966224198e+03
1.310000000000291598e+00 1.558837211842457918e+03
1.330000000000291172e+00 1.568744856115083167e+03
1.350000000000290745e+00 1.571485539865132750e+03
1.370000000000290319e+00 1.571032760078517413e+03
1.390000000000289893e+00 1.565828141929747744e+03
1.410000000000289466e+00 1.568330531035047898e+03
1.430000000000289040e+00 1.574260584550651402e+03
1.450000000000288614e+00 1.563964208360001066e+03
1.470000000000288187e+00 1.567492415198831395e+03
1.490000000000287761e+00 1.562059592086748808e+03
1.510000000000287335e+00 1.555915073717368614e+03
1.530000000000286908e+00 1.559956444396514144e+03
1.550000000000286482e+00 1.552040107345409979e+03
1.570000000000286056e+00 1.544037685423581252e+03
1.590000000000285629e+00 1.541612952994607895e+03
1.610000000000285203e+00 1.534817783418631734e+03
1.630000000000284777e+00 1.527120388990133506e+03
1.650000000000284350e+00 1.509946237478671037e+03
1.670000000000283924e+00 1.509833977950701410e+03
1.690000000000283498e+00 1.501309044039204764e+03
1.710000000000283071e+00 1.492010260921876579e+03
1.730000000000282645e+00 1.478284047729651093e+03
1.750000000000282219e+00 1.472526092292966268e+03
1.770000000000281792e+00 1.459480454752578680e+03
1.790000000000281366e+00 1.445776450131256979e+03
1.810000000000280940e+00 1.442840488602529604e+03
1.830000000000280513e+00 1.430448049555791840e+03
1.850000000000280087e+00 1.406804885179310304e+03
1.870000000000279661e+00 1.400615043429101434e+03
1.890000000000279234e+00 1.387279121970169626e+03
1.910000000000278808e+00 1.374836634407899510e+03
1.930000000000278382e+00 1.370944844404223659e+03
1.950000000000277955e+00 1.350855411432060237e+03
1.970000000000277529e+00 1.330216073041360005e+03
1.990000000000277103e+00 1.322576036748429260e+03
2.010000000000276899e+00 1.308886766752590347e+03
2.030000000000276472e+00 1.290982223962677608e+03
2.050000000000276046e+00 1.282594009573605717e+03
2.070000000000275620e+00 1.268378398390703069e+03
2.090000000000275193e+00 1.252552171781220522e+03
2.110000000000274767e+00 1.234529039679215202e+03
2.130000000000274341e+00 1.222227367686828984e+03
2.150000000000273914e+00 1.208449529465093974e+03
2.170000000000273488e+00 1.192647324360918901e+03
2.190000000000273062e+00 1.180179754941980036e+03
2.210000000000272635e+00 1.161285940087301697e+03
2.230000000000272209e+00 1.146988294788492794e+03
2.250000000000271783e+00 1.134710441003345068e+03
2.270000000000271356e+00 1.119700422892271263e+03
2.290000000000270930e+00 1.103830067416419524e+03
2.310000000000270504e+00 1.093567299755256727e+03
2.330000000000270077e+00 1.075005847157567132e+03
2.350000000000269651e+00 1.055253807105382293e+03
2.370000000000269225e+00 1.048785989380643514e+03
2.390000000000268798e+00 1.030003297140207223e+03
2.410000000000268372e+00 1.018154519915976948e+03
2.430000000000267946e+00 1.001820577377792915e+03
2.450000000000267519e+00 9.885040552024017870e+02
2.470000000000267093e+00 9.749515438633676467e+02
2.490000000000266667e+00 9.583306943129582578e+02
2.510000000000266240e+00 9.477232974697147938e+02
2.530000000000265814e+00 9.308135345143967925e+02
2.550000000000265388e+00 9.180452940314299894e+02
2.570000000000264961e+00 9.040471169042662041e+02
2.590000000000264535e+00 8.915246153074939457e+02
2.610000000000264109e+00 8.778604226860297786e+02
2.630000000000263682e+00 8.625955123967401050e+02
2.650000000000263256e+00 8.481593581976655969e+02
2.670000000000262830e+00 8.356666771960276492e+02
2.690000000000262403e+00 8.262309149139807687e+02
2.710000000000261977e+00 8.080622251031896894e+02
2.730000000000261551e+00 8.025638294541568030e+02
2.750000000000261124e+00 7.837668552114903378e+02
2.770000000000260698e+00 7.680037634699732507e+02
2.790000000000260272e+00 7.622142790754664929e+02
2.810000000000259845e+00 7.468835499703656069e+02
2.830000000000259419e+00 7.347184713448837101e+02
2.850000000000258993e+00 7.199434207944796071e+02
2.870000000000258567e+00 7.107432554074169957e+02
2.890000000000258140e+00 6.944295044776948771e+02
2.910000000000257714e+00 6.868695927539203012e+02
2.930000000000257288e+00 6.751085343427994303e+02
2.950000000000256861e+00 6.652069692078304115e+02
2.970000000000256435e+00 6.525445711517561449e+02
2.990000000000256009e+00 6.402399462428089691e+02
3.010000000000255582e+00 6.287869273127092811e+02
3.030000000000255156e+00 6.189247988081236826e+02
3.050000000000254730e+00 6.093777286896871601e+02
3.070000000000254303e+00 5.968498345328690675e+02
3.090000000000253877e+00 5.846388573701434552e+02
3.110000000000253451e+00 5.767078026321778452e+02
3.130000000000253024e+00 5.658989189057880367e+02
3.150000000000252598e+00 5.569298814869150647e+02
3.170000000000252172e+00 5.438463576837701794e+02
3.190000000000251745e+00 5.340732582623327289e+02
3.210000000000251319e+00 5.295024984482074615e+02
3.230000000000250893e+00 5.152128946743970346e+02
3.250000000000250466e+00 5.043375678011001355e+02
3.270000000000250040e+00 4.988700129860657171e+02
3.290000000000249614e+00 4.877528441925969105e+02
3.310000000000249187e+00 4.792771028942049156e+02
3.330000000000248761e+00 4.722786857328597421e+02
3.350000000000248335e+00 4.593313018538288475e+02
3.370000000000247908e+00 4.539255359732655961e+02
3.390000000000247482e+00 4.459181581372354799e+02
3.410000000000247056e+00 4.376941566232281389e+02
3.430000000000246629e+00 4.272038047236012517e+02
3.450000000000246203e+00 4.196404174046709841e+02
3.470000000000245777e+00 4.137116257876754162e+02
3.490000000000245350e+00 4.029393125703025476e+02
3.510000000000244924e+00 3.974470046601935564e+02
3.530000000000244498e+00 3.890550946788760029e+02
3.550000000000244071e+00 3.815080259533370395e+02
3.570000000000243645e+00 3.755927600021564103e+02
3.590000000000243219e+00 3.687124550674351440e+02
3.610000000000242792e+00 3.618239199847279224e+02
3.630000000000242366e+00 3.534611080174943254e+02
3.650000000000241940e+00 3.499847948169389156e+02
3.670000000000241513e+00 3.423642572456299717e+02
3.690000000000241087e+00 3.359047355334049030e+02
3.710000000000240661e+00 3.283296235723222480e+02
3.730000000000240234e+00 3.226608829094079169e+02
3.750000000000239808e+00 3.190471622526254123e+02
3.770000000000239382e+00 3.112437064108891036e+02
3.790000000000238956e+00 3.063938938611652816e+02
3.810000000000238529e+00 2.996651608230848183e+02
3.830000000000238103e+00 2.956949258034194372e+02
3.850000000000237677e+00 2.908133998285873645e+02
3.870000000000237250e+00 2.849395674659165820e+02
3.890000000000236824e+00 2.806525403364398130e+02
3.910000000000236398e+00 2.751261519689755346e+02
3.930000000000235971e+00 2.696943145989790196e+02
3.950000000000235545e+00 2.661443463655613755e+02
3.970000000000235119e+00 2.619097755986750258e+02
3.990000000000234692e+00 2.545397955065562030e+02
4.010000000000234266e+00 2.521698308927171297e+02
4.030000000000233840e+00 2.498015340097689716e+02
4.050000000000233413e+00 2.434539923956335201e+02
4.070000000000232987e+00 2.407389114873177505e+02
4.090000000000232561e+00 2.362907609658325327e+02
4.110000000000232134e+00 2.311705370483299475e+02
4.130000000000231708e+00 2.289913481257702870e+02
4.150000000000231282e+00 2.246337031316528510e+02
4.170000000000230855e+00 2.208246107812355206e+02
4.190000000000230429e+00 2.184206340247236540e+02
4.210000000000230003e+00 2.135013627264557670e+02
4.230000000000229576e+00 2.117623153934599713e+02
4.250000000000229150e+00 2.078122046879370544e+02
4.270000000000228724e+00 2.044067014312361721e+02
4.290000000000228297e+00 2.019347486315803621e+02
4.310000000000227871e+00 1.995477689278256150e+02
4.330000000000227445e+00 1.952397615289318651e+02
4.350000000000227018e+00 1.937994671827266018e+02
4.370000000000226592e+00 1.901719197550537501e+02
4.390000000000226166e+00 1.873652285901491723e+02
4.410000000000225739e+00 1.851454950548445311e+02
4.430000000000225313e+00 1.837544959192225917e+02
4.450000000000224887e+00 1.798348277498929235e+02
4.470000000000224460e+00 1.783039958086576746e+02
4.490000000000224034e+00 1.760694684683164724e+02
4.510000000000223608e+00 1.745571219375719352e+02
4.530000000000223181e+00 1.714270502593383014e+02
4.550000000000222755e+00 1.694921249761584647e+02
4.570000000000222329e+00 1.683101181309862113e+02
4.590000000000221902e+00 1.665667319197666245e+02
4.610000000000221476e+00 1.637240240425747118e+02
4.630000000000221050e+00 1.636235086530370211e+02
4.650000000000220624e+00 1.616235689913754925e+02
4.670000000000220197e+00 1.594404832886149563e+02
4.690000000000219771e+00 1.582024219146709640e+02
4.710000000000219345e+00 1.561983583602859653e+02
4.730000000000218918e+00 1.557597464654864154e+02
4.750000000000218492e+00 1.541283956522348433e+02
4.770000000000218066e+00 1.528277571705181686e+02
4.790000000000217639e+00 1.516391684609140782e+02
4.810000000000217213e+00 1.510223442412302575e+02
4.830000000000216787e+00 1.495289922520444463e+02
4.850000000000216360e+00 1.480561186684646771e+02
4.870000000000215934e+00 1.487449507934405233e+02
4.890000000000215508e+00 1.472970719022468415e+02
4.910000000000215081e+00 1.458969819703069675e+02
4.930000000000214655e+00 1.448366348468876765e+02
4.950000000000214229e+00 1.444584139026144953e+02
4.970000000000213802e+00 1.445719858773776423e+02
4.990000000000213376e+00 1.434795321900396061e+02
5.010000000000212950e+00 1.425075392669489247e+02
5.030000000000212523e+00 1.424544776616429260e+02
5.050000000000212097e+00 1.424272379647119919e+02
5.070000000000211671e+00 1.410402509926674668e+02
5.090000000000211244e+00 1.410740028541630124e+02
5.110000000000210818e+00 1.408630747620456134e+02
5.130000000000210392e+00 1.399045603100059907e+02
5.150000000000209965e+00 1.404585177013667590e+02
5.170000000000209539e+00 1.395565785004864381e+02
5.190000000000209113e+00 1.384163364729554644e+02
5.210000000000208686e+00 1.391145932130424967e+02
5.230000000000208260e+00 1.385620443089661364e+02
5.250000000000207834e+00 1.382329976435219123e+02
5.270000000000207407e+00 1.371413356963047647e+02
5.290000000000206981e+00 1.380861468980671702e+02
5.310000000000206555e+00 1.380001657981459005e+02
5.330000000000206128e+00 1.366472297850818620e+02
5.350000000000205702e+00 1.360531123517786511e+02
5.370000000000205276e+00 1.364999640524538336e+02
5.390000000000204849e+00 1.364672111479341936e+02
5.410000000000204423e+00 1.362865158000239774e+02
5.430000000000203997e+00 1.355577295072872630e+02
5.450000000000203570e+00 1.352617154319881365e+02
5.470000000000203144e+00 1.356485155809540117e+02
5.490000000000202718e+00 1.348546574222985441e+02
5.510000000000202292e+00 1.350581650824977658e+02
5.530000000000201865e+00 1.352649239521658444e+02
5.550000000000201439e+00 1.331106288237523643e+02
5.570000000000201013e+00 1.334145809625519234e+02
5.590000000000200586e+00 1.321515169994320615e+02
5.610000000000200160e+00 1.323470459982052319e+02
5.630000000000199734e+00 1.337550501661424391e+02
5.650000000000199307e+00 1.316778745550484189e+02
5.670000000000198881e+00 1.319670670436351543e+02
5.690000000000198455e+00 1.309895174894288346e+02
5.710000000000198028e+00 1.302022697583864215e+02
5.730000000000197602e+00 1.305165748509148500e+02
5.750000000000197176e+00 1.299617248497814899e+02
5.770000000000196749e+00 1.279520952387188544e+02
5.790000000000196323e+00 1.290693755768331528e+02
5.810000000000195897e+00 1.269122596455036955e+02
5.830000000000195470e+00 1.280077896108883806e+02
5.850000000000195044e+00 1.258355329340267588e+02
5.870000000000194618e+00 1.253216776945195079e+02
5.890000000000194191e+00 1.248223282667028258e+02
5.910000000000193765e+00 1.240696922815308483e+02
5.930000000000193339e+00 1.228730880251760595e+02
5.950000000000192912e+00 1.228409297544091174e+02
5.970000000000192486e+00 1.222041365065946792e+02
5.990000000000192060e+00 1.208197107999698687e+02
6.010000000000191633e+00 1.207726624678733032e+02
6.030000000000191207e+00 1.201055031905450932e+02
6.050000000000190781e+00 1.187780061532159266e+02
6.070000000000190354e+00 1.181420131197684924e+02
6.090000000000189928e+00 1.175358295041060472e+02
6.110000000000189502e+00 1.168369176131283353e+02
6.130000000000189075e+00 1.162428271164988729e+02
6.150000000000188649e+00 1.141325283660474810e+02
6.170000000000188223e+00 1.138966377271498800e+02
6.190000000000187796e+00 1.132879634895613918e+02
6.210000000000187370e+00 1.117992875186140367e+02
6.230000000000186944e+00 1.108451089304295181e+02
6.250000000000186517e+00 1.102823386648385906e+02
6.270000000000186091e+00 1.091806123504259034e+02
6.290000000000185665e+00 1.084718994429184562e+02
6.310000000000185238e+00 1.077729993474788444e+02
6.330000000000184812e+00 1.062225094610819127e+02
6.350000000000184386e+00 1.050145852891471066e+02
6.370000000000183960e+00 1.047541772737923083e+02
6.390000000000183533e+00 1.034448359701495264e+02
6.410000000000183107e+00 1.025047662188496531e+02
6.430000000000182681e+00 1.019793297511080397e+02
6.450000000000182254e+00 1.007660068925228245e+02
6.470000000000181828e+00 9.928466862747922050e+01
6.490000000000181402e+00 9.921141350341802934e+01
6.510000000000180975e+00 9.832995191656009126e+01
6.530000000000180549e+00 9.771222564160116519e+01
6.550000000000180123e+00 9.637084480705964040e+01
6.570000000000179696e+00 9.577159750468946697e+01
6.590000000000179270e+00 9.516357603763408690e+01
6.610000000000178844e+00 9.444289713368550565e+01
6.630000000000178417e+00 9.333600210411383102e+01
6.650000000000177991e+00 9.307045572436555858e+01
6.670000000000177565e+00 9.223431011677261893e+01
6.690000000000177138e+00 9.126584577239900398e+01
6.710000000000176712e+00 9.011431198506559781e+01
6.730000000000176286e+00 8.994210825159098022e+01
6.750000000000175859e+00 8.891013273335123301e+01
6.770000000000175433e+00 8.750886579941615651e+01
6.790000000000175007e+00 8.682728114594158342e+01
6.810000000000174580e+00 8.666611905602249522e+01
6.830000000000174154e+00 8.565344733461353144e+01
6.850000000000173728e+00 8.444022809076058422e+01
6.870000000000173301e+00 8.390171318148075841e+01
6.890000000000172875e+00 8.262789810654226130e+01
6.910000000000172449e+00 8.247533709038420113e+01
6.930000000000172022e+00 8.166477656218393122e+01
6.950000000000171596e+00 8.108410141260917214e+01
6.970000000000171170e+00 8.023174360724283360e+01
6.990000000000170743e+00 7.945272285595213191e+01
7.010000000000170317e+00 7.897554085168863480e+01
7.030000000000169891e+00 7.825038549471678095e+01
7.050000000000169464e+00 7.805018150982509439e+01
7.070000000000169038e+00 7.732026156101223080e+01
7.090000000000168612e+00 7.705939502935963503e+01
7.110000000000168185e+00 7.623059485439219429e+01
7.130000000000167759e+00 7.576213551546389624e+01
7.150000000000167333e+00 7.504875673647674716e+01
7.170000000000166906e+00 7.480924017223925659e+01
7.190000000000166480e+00 7.419876242555437784e+01
7.210000000000166054e+00 7.396642585750085175e+01
7.230000000000165628e+00 7.381806395073799365e+01
7.250000000000165201e+00 7.274702632390263091e+01
7.270000000000164775e+00 7.210821483216481909e+01
7.290000000000164349e+00 7.194511826859888970e+01
7.310000000000163922e+00 7.114847115141813561e+01
7.330000000000163496e+00 7.109207236034399102e+01
7.350000000000163070e+00 7.100963668277499607e+01
7.370000000000162643e+00 6.985856825797175418e+01
7.390000000000162217e+00 6.934287382413006640e+01
7.410000000000161791e+00 6.912201193054198711e+01
7.430000000000161364e+00 6.937186402636633886e+01
7.450000000000160938e+00 6.929296531821651683e+01
7.470000000000160512e+00 6.857294740055246507e+01
7.490000000000160085e+00 6.837636135469676901e+01
7.510000000000159659e+00 6.830294914638631099e+01
7.530000000000159233e+00 6.842656833245770542e+01
7.550000000000158806e+00 6.765010214382040488e+01
7.570000000000158380e+00 6.765483124726752351e+01
7.590000000000157954e+00 6.803609429270854037e+01
7.610000000000157527e+00 6.797459524117657281e+01
7.630000000000157101e+00 6.838308835683614006e+01
7.650000000000156675e+00 6.808886368095643604e+01
7.670000000000156248e+00 6.829999451896047447e+01
7.690000000000155822e+00 6.797665584830211571e+01
7.710000000000155396e+00 6.860419591756632940e+01
7.730000000000154969e+00 6.855099382459665946e+01
7.750000000000154543e+00 6.866674419056737122e+01
7.770000000000154117e+00 6.823157216741317654e+01
7.790000000000153690e+00 6.862709213145650722e+01
7.810000000000153264e+00 6.862605510831919275e+01
7.830000000000152838e+00 6.862649756469564011e+01
7.850000000000152411e+00 6.893231068035984777e+01
7.870000000000151985e+00 6.890615640091979799e+01
7.890000000000151559e+00 6.899599402261442549e+01
7.910000000000151132e+00 6.941801337463000721e+01
7.930000000000150706e+00 6.965624455551986216e+01
7.950000000000150280e+00 7.014105362722348502e+01
7.970000000000149853e+00 7.018171510280173209e+01
