# Redshift		Merger Rate Density [Gpc^-3yr^-1]
1.000000000031931770e-02 1.419608027209020804e+02
3.000000000031888964e-02 1.489609272470898134e+02
5.000000000031846331e-02 1.550891000322203865e+02
7.000000000031804392e-02 1.621806123514753892e+02
9.000000000031761760e-02 1.689667317252599616e+02
1.100000000003171913e-01 1.760318353187837488e+02
1.300000000003167511e-01 1.836758764601356404e+02
1.500000000003163247e-01 1.909516990505924525e+02
1.700000000003158984e-01 1.979126454452984376e+02
1.900000000003154721e-01 2.057348221595928521e+02
2.100000000003150458e-01 2.141138170976200286e+02
2.300000000003146194e-01 2.206807196932274451e+02
2.500000000003141931e-01 2.303480979454969315e+02
2.700000000003137668e-01 2.377151566218098822e+02
2.900000000003133405e-01 2.459146177236365247e+02
3.100000000003129141e-01 2.551254762412190189e+02
3.300000000003124878e-01 2.623065235667657475e+02
3.500000000003120615e-01 2.717569121920863608e+02
3.700000000003116352e-01 2.794456158430665482e+02
3.900000000003112088e-01 2.888937249022635569e+02
4.100000000003107825e-01 2.978063891712805002e+02
4.300000000003103562e-01 3.070833287269387597e+02
4.500000000003099299e-01 3.148853787440677934e+02
4.700000000003095035e-01 3.257504683729979433e+02
4.900000000003090772e-01 3.343034367267075027e+02
5.100000000003086509e-01 3.461577747193299501e+02
5.300000000003082246e-01 3.536924454915769047e+02
5.500000000003077982e-01 3.662153308190734720e+02
5.700000000003073719e-01 3.736694249889365551e+02
5.900000000003069456e-01 3.834642213916140463e+02
6.100000000003065193e-01 3.948519558729621508e+02
6.300000000003060929e-01 4.035348138910182456e+02
6.500000000003056666e-01 4.130510896311556621e+02
6.700000000003052403e-01 4.258765604704712473e+02
6.900000000003048140e-01 4.357985020203382760e+02
7.100000000003043876e-01 4.470343899404975900e+02
7.300000000003039613e-01 4.587405886589268675e+02
7.500000000003035350e-01 4.660736501259078750e+02
7.700000000003031086e-01 4.791968856481567514e+02
7.900000000003026823e-01 4.901130569137555426e+02
8.100000000003022560e-01 4.999669641298378906e+02
8.300000000003018297e-01 5.109119900970957246e+02
8.500000000003014033e-01 5.205699894236374803e+02
8.700000000003009770e-01 5.328406284225620766e+02
8.900000000003005507e-01 5.461425364043317359e+02
9.100000000003001244e-01 5.543421108049003578e+02
9.300000000002996980e-01 5.636610236789467763e+02
9.500000000002992717e-01 5.763241746020479468e+02
9.700000000002988454e-01 5.905940785487266567e+02
9.900000000002984191e-01 5.968241845141109252e+02
1.010000000000297993e+00 6.054761115178889668e+02
1.030000000000297566e+00 6.192114628485924186e+02
1.050000000000297140e+00 6.285730951981651060e+02
1.070000000000296714e+00 6.353593825320887163e+02
1.090000000000296287e+00 6.492333149131220580e+02
1.110000000000295861e+00 6.607057471315941939e+02
1.130000000000295435e+00 6.676616500874918074e+02
1.150000000000295008e+00 6.792733324370668697e+02
1.170000000000294582e+00 6.896596062955863999e+02
1.190000000000294156e+00 6.983983090332261554e+02
1.210000000000293729e+00 7.085436836636899898e+02
1.230000000000293303e+00 7.183088916987614994e+02
1.250000000000292877e+00 7.277637996579079527e+02
1.270000000000292451e+00 7.307575125245082290e+02
1.290000000000292024e+00 7.446005811067782361e+02
1.310000000000291598e+00 7.516792969958479489e+02
1.330000000000291172e+00 7.587623630450959809e+02
1.350000000000290745e+00 7.670938279448715775e+02
1.370000000000290319e+00 7.740144067654780429e+02
1.390000000000289893e+00 7.818557149662024131e+02
1.410000000000289466e+00 7.880662743907574850e+02
1.430000000000289040e+00 7.931374764888577147e+02
1.450000000000288614e+00 8.045157423834987185e+02
1.470000000000288187e+00 8.113561595516653142e+02
1.490000000000287761e+00 8.133945786434305774e+02
1.510000000000287335e+00 8.197508346987301593e+02
1.530000000000286908e+00 8.240079384425496301e+02
1.550000000000286482e+00 8.298238460199589781e+02
1.570000000000286056e+00 8.360612659202867007e+02
1.590000000000285629e+00 8.381599088607306385e+02
1.610000000000285203e+00 8.413575637252323531e+02
1.630000000000284777e+00 8.455402258835908924e+02
1.650000000000284350e+00 8.500888618719754959e+02
1.670000000000283924e+00 8.535474864642108059e+02
1.690000000000283498e+00 8.568271321600731198e+02
1.710000000000283071e+00 8.603037713985912660e+02
1.730000000000282645e+00 8.613673955669900124e+02
1.750000000000282219e+00 8.638325695400109225e+02
1.770000000000281792e+00 8.657589171676921751e+02
1.790000000000281366e+00 8.681530038036908081e+02
1.810000000000280940e+00 8.699367176922961562e+02
1.830000000000280513e+00 8.633757327814262226e+02
1.850000000000280087e+00 8.653597145419313392e+02
1.870000000000279661e+00 8.643416874438862578e+02
1.890000000000279234e+00 8.652433378228569154e+02
1.910000000000278808e+00 8.591301033707618444e+02
1.930000000000278382e+00 8.615272606730835605e+02
1.950000000000277955e+00 8.590853504230407225e+02
1.970000000000277529e+00 8.537332959097705043e+02
1.990000000000277103e+00 8.547805834513756054e+02
2.010000000000276899e+00 8.525172093995136038e+02
2.030000000000276472e+00 8.491262100384196856e+02
2.050000000000276046e+00 8.438320546154844806e+02
2.070000000000275620e+00 8.448275839112588983e+02
2.090000000000275193e+00 8.360517319046975899e+02
2.110000000000274767e+00 8.379735191648401269e+02
2.130000000000274341e+00 8.312852245038810679e+02
2.150000000000273914e+00 8.280866667314465985e+02
2.170000000000273488e+00 8.230695052974388091e+02
2.190000000000273062e+00 8.116583284269277101e+02
2.210000000000272635e+00 8.070621464390746951e+02
2.230000000000272209e+00 7.973254754258795174e+02
2.250000000000271783e+00 7.917324743838312315e+02
2.270000000000271356e+00 7.826725197607745486e+02
2.290000000000270930e+00 7.764544453033579430e+02
2.310000000000270504e+00 7.671260840818173392e+02
2.330000000000270077e+00 7.605186436417184268e+02
2.350000000000269651e+00 7.525691192288543334e+02
2.370000000000269225e+00 7.426892410591731277e+02
2.390000000000268798e+00 7.380435506549474667e+02
2.410000000000268372e+00 7.287483731395377617e+02
2.430000000000267946e+00 7.197911462264065676e+02
2.450000000000267519e+00 7.115568085468338495e+02
2.470000000000267093e+00 7.017031192557311670e+02
2.490000000000266667e+00 6.967904677063648933e+02
2.510000000000266240e+00 6.873323591843367240e+02
2.530000000000265814e+00 6.786040680005262402e+02
2.550000000000265388e+00 6.740202315226423480e+02
2.570000000000264961e+00 6.620260673561019757e+02
2.590000000000264535e+00 6.545886528898145116e+02
2.610000000000264109e+00 6.486315908406688777e+02
2.630000000000263682e+00 6.386354997331606000e+02
2.650000000000263256e+00 6.301047638452173487e+02
2.670000000000262830e+00 6.200420151439755045e+02
2.690000000000262403e+00 6.162781673509432494e+02
2.710000000000261977e+00 6.080334396536159147e+02
2.730000000000261551e+00 5.985564536037336438e+02
2.750000000000261124e+00 5.920184319981332237e+02
2.770000000000260698e+00 5.839485181652360097e+02
2.790000000000260272e+00 5.743282834680441056e+02
2.810000000000259845e+00 5.698441895657688292e+02
2.830000000000259419e+00 5.614989096562642317e+02
2.850000000000258993e+00 5.522838902473828284e+02
2.870000000000258567e+00 5.463795319827900130e+02
2.890000000000258140e+00 5.386344126642640049e+02
2.910000000000257714e+00 5.281857384437646488e+02
2.930000000000257288e+00 5.217073904914994955e+02
2.950000000000256861e+00 5.167911519006983099e+02
2.970000000000256435e+00 5.091557062369987534e+02
2.990000000000256009e+00 4.982696854618608882e+02
3.010000000000255582e+00 4.962939884086156894e+02
3.030000000000255156e+00 4.864015895945439070e+02
3.050000000000254730e+00 4.802548964289744049e+02
3.070000000000254303e+00 4.737105439128119997e+02
3.090000000000253877e+00 4.673763387508104756e+02
3.110000000000253451e+00 4.608778119265858777e+02
3.130000000000253024e+00 4.533261716155120666e+02
3.150000000000252598e+00 4.467713326285610833e+02
3.170000000000252172e+00 4.401226645830295752e+02
3.190000000000251745e+00 4.356392875979278188e+02
3.210000000000251319e+00 4.282760402212472286e+02
3.230000000000250893e+00 4.222800560442153142e+02
3.250000000000250466e+00 4.176236306464402901e+02
3.270000000000250040e+00 4.101012495778751372e+02
3.290000000000249614e+00 4.054610568281314613e+02
3.310000000000249187e+00 3.999228624258265086e+02
3.330000000000248761e+00 3.918750687713222760e+02
3.350000000000248335e+00 3.879359782655130289e+02
3.370000000000247908e+00 3.822219744853312591e+02
3.390000000000247482e+00 3.761749955022467589e+02
3.410000000000247056e+00 3.699551057770533475e+02
3.430000000000246629e+00 3.657395079968177356e+02
3.450000000000246203e+00 3.596288037075894977e+02
3.470000000000245777e+00 3.548181090808297995e+02
3.490000000000245350e+00 3.482400123828537062e+02
3.510000000000244924e+00 3.446059545472131163e+02
3.530000000000244498e+00 3.397785885347144585e+02
3.550000000000244071e+00 3.349884484989244697e+02
3.570000000000243645e+00 3.303659010926651263e+02
3.590000000000243219e+00 3.264692388753995829e+02
3.610000000000242792e+00 3.212903339000231995e+02
3.630000000000242366e+00 3.167468566175964497e+02
3.650000000000241940e+00 3.114747779811281134e+02
3.670000000000241513e+00 3.074070717422334837e+02
3.690000000000241087e+00 3.033216928288137524e+02
3.710000000000240661e+00 3.008485693193179031e+02
3.730000000000240234e+00 2.965155531018133956e+02
3.750000000000239808e+00 2.907047893881607479e+02
3.770000000000239382e+00 2.876822341135565466e+02
3.790000000000238956e+00 2.831875621504881337e+02
3.810000000000238529e+00 2.793751467488747835e+02
3.830000000000238103e+00 2.748064507542532056e+02
3.850000000000237677e+00 2.707885355884524188e+02
3.870000000000237250e+00 2.685269471442294957e+02
3.890000000000236824e+00 2.640101457756659897e+02
3.910000000000236398e+00 2.596036072014612728e+02
3.930000000000235971e+00 2.561918180171365407e+02
3.950000000000235545e+00 2.509260104706920913e+02
3.970000000000235119e+00 2.486532106579153663e+02
3.990000000000234692e+00 2.444816989177662947e+02
4.010000000000234266e+00 2.413867775575264716e+02
4.030000000000233840e+00 2.374837359338150407e+02
4.050000000000233413e+00 2.341679090991328849e+02
4.070000000000232987e+00 2.309648592945094663e+02
4.090000000000232561e+00 2.274444990906336557e+02
4.110000000000232134e+00 2.241326286323101442e+02
4.130000000000231708e+00 2.214001356563859986e+02
4.150000000000231282e+00 2.174522619040683082e+02
4.170000000000230855e+00 2.141897190177031973e+02
4.190000000000230429e+00 2.115842356394887531e+02
4.210000000000230003e+00 2.088135368822505313e+02
4.230000000000229576e+00 2.057314103783903363e+02
4.250000000000229150e+00 2.028680881282514008e+02
4.270000000000228724e+00 2.004437708263484978e+02
4.290000000000228297e+00 1.970792461477490747e+02
4.310000000000227871e+00 1.947358138193792740e+02
4.330000000000227445e+00 1.915740859364025823e+02
4.350000000000227018e+00 1.895602454015088938e+02
4.370000000000226592e+00 1.867379336293623737e+02
4.390000000000226166e+00 1.841236634561201129e+02
4.410000000000225739e+00 1.825918803162570612e+02
4.430000000000225313e+00 1.790059182394128072e+02
4.450000000000224887e+00 1.764213901378393246e+02
4.470000000000224460e+00 1.739972885082849814e+02
4.490000000000224034e+00 1.715679139424987909e+02
4.510000000000223608e+00 1.693414685707142269e+02
4.530000000000223181e+00 1.672419120849141052e+02
4.550000000000222755e+00 1.652054709720844130e+02
4.570000000000222329e+00 1.633497151871519293e+02
4.590000000000221902e+00 1.603669748512069475e+02
4.610000000000221476e+00 1.589574366064749995e+02
4.630000000000221050e+00 1.558227584506484789e+02
4.650000000000220624e+00 1.545194487197383637e+02
4.670000000000220197e+00 1.518396652847220025e+02
4.690000000000219771e+00 1.509213166158556021e+02
4.710000000000219345e+00 1.480273101852600064e+02
4.730000000000218918e+00 1.467092073173547249e+02
4.750000000000218492e+00 1.440044915349332655e+02
4.770000000000218066e+00 1.429721606749362763e+02
4.790000000000217639e+00 1.407794090423740840e+02
4.810000000000217213e+00 1.391106478299002163e+02
4.830000000000216787e+00 1.374154741220703499e+02
4.850000000000216360e+00 1.352657629464522984e+02
4.870000000000215934e+00 1.337273089975477660e+02
4.890000000000215508e+00 1.312973935795946261e+02
4.910000000000215081e+00 1.300110811821855634e+02
4.930000000000214655e+00 1.286365397627905054e+02
4.950000000000214229e+00 1.266473396995828011e+02
4.970000000000213802e+00 1.244774688448530640e+02
4.990000000000213376e+00 1.238255295388535870e+02
5.010000000000212950e+00 1.216688059136648832e+02
5.030000000000212523e+00 1.201237934267704759e+02
5.050000000000212097e+00 1.188592395252496914e+02
5.070000000000211671e+00 1.162736631227393360e+02
5.090000000000211244e+00 1.147540831889492665e+02
5.110000000000210818e+00 1.141235466908527485e+02
5.130000000000210392e+00 1.130219339569915746e+02
5.150000000000209965e+00 1.112109375725633953e+02
5.170000000000209539e+00 1.098900757094559282e+02
5.190000000000209113e+00 1.080156512924986885e+02
5.210000000000208686e+00 1.071189919896931002e+02
5.230000000000208260e+00 1.052924915552275991e+02
5.250000000000207834e+00 1.046135911042847511e+02
5.270000000000207407e+00 1.023518299173038173e+02
5.290000000000206981e+00 1.017099352659060543e+02
5.310000000000206555e+00 9.959489100102084080e+01
5.330000000000206128e+00 9.865475410967269454e+01
5.350000000000205702e+00 9.796159062432279541e+01
5.370000000000205276e+00 9.641194277929567136e+01
5.390000000000204849e+00 9.549428690865269687e+01
5.410000000000204423e+00 9.513026669556654724e+01
5.430000000000203997e+00 9.363990414528366557e+01
5.450000000000203570e+00 9.209836964113996771e+01
5.470000000000203144e+00 9.103383504296142803e+01
5.490000000000202718e+00 9.042995632241465387e+01
5.510000000000202292e+00 8.926288791073056927e+01
5.530000000000201865e+00 8.843459125237761498e+01
5.550000000000201439e+00 8.632212493383282492e+01
5.570000000000201013e+00 8.592134574020633409e+01
5.590000000000200586e+00 8.470742193567807021e+01
5.610000000000200160e+00 8.409819708032419783e+01
5.630000000000199734e+00 8.305710165293713487e+01
5.650000000000199307e+00 8.178784585987054356e+01
5.670000000000198881e+00 8.099384724071624930e+01
5.690000000000198455e+00 7.993889685944633072e+01
5.710000000000198028e+00 7.905966033408198257e+01
5.730000000000197602e+00 7.840366200802803576e+01
5.750000000000197176e+00 7.728578234181617290e+01
5.770000000000196749e+00 7.754698847626315228e+01
5.790000000000196323e+00 7.527602912456939066e+01
5.810000000000195897e+00 7.465416425098264597e+01
5.830000000000195470e+00 7.327419623192456299e+01
5.850000000000195044e+00 7.251799677719348836e+01
5.870000000000194618e+00 7.107228806778698527e+01
5.890000000000194191e+00 7.121732373849394548e+01
5.910000000000193765e+00 7.026923069036396896e+01
5.930000000000193339e+00 6.938807707190495933e+01
5.950000000000192912e+00 6.865465218748539655e+01
5.970000000000192486e+00 6.778040948433037727e+01
5.990000000000192060e+00 6.744131075527198504e+01
6.010000000000191633e+00 6.560168425279151450e+01
6.030000000000191207e+00 6.492154865744920755e+01
6.050000000000190781e+00 6.442922822139641426e+01
6.070000000000190354e+00 6.403453581274661133e+01
6.090000000000189928e+00 6.304578849527716500e+01
6.110000000000189502e+00 6.223644644851299290e+01
6.130000000000189075e+00 6.187767534554006943e+01
6.150000000000188649e+00 6.062974315279996773e+01
6.170000000000188223e+00 6.046747785082197879e+01
6.190000000000187796e+00 5.948777612535849357e+01
6.210000000000187370e+00 5.896720172958132622e+01
6.230000000000186944e+00 5.836458415086389806e+01
6.250000000000186517e+00 5.737056347869155104e+01
6.270000000000186091e+00 5.643800643294190422e+01
6.290000000000185665e+00 5.564271897509923548e+01
6.310000000000185238e+00 5.545393075138486694e+01
6.330000000000184812e+00 5.459075296751635875e+01
6.350000000000184386e+00 5.379489591329159737e+01
6.370000000000183960e+00 5.296788641433354172e+01
6.390000000000183533e+00 5.259306618264108835e+01
6.410000000000183107e+00 5.198287226997118182e+01
6.430000000000182681e+00 5.074934062710985927e+01
6.450000000000182254e+00 5.050508456135621316e+01
6.470000000000181828e+00 4.986476533597175376e+01
6.490000000000181402e+00 4.930130180511911675e+01
6.510000000000180975e+00 4.890470643182759858e+01
6.530000000000180549e+00 4.876289315269336555e+01
6.550000000000180123e+00 4.719703890250112011e+01
6.570000000000179696e+00 4.708868981433717948e+01
6.590000000000179270e+00 4.667795159838438224e+01
6.610000000000178844e+00 4.578128814597270235e+01
6.630000000000178417e+00 4.573330139930320826e+01
6.650000000000177991e+00 4.473857995143699640e+01
6.670000000000177565e+00 4.454925274202266650e+01
6.690000000000177138e+00 4.399993646393144076e+01
6.710000000000176712e+00 4.343418354273016035e+01
6.730000000000176286e+00 4.335201520101276174e+01
6.750000000000175859e+00 4.219455786502479810e+01
6.770000000000175433e+00 4.208121183540073673e+01
6.790000000000175007e+00 4.138207749299337479e+01
6.810000000000174580e+00 4.079741257938979260e+01
6.830000000000174154e+00 4.070512764901909719e+01
6.850000000000173728e+00 4.000093255463266217e+01
6.870000000000173301e+00 3.943257905719416101e+01
6.890000000000172875e+00 3.921375450783619954e+01
6.910000000000172449e+00 3.875343789590995414e+01
6.930000000000172022e+00 3.840121944585167313e+01
6.950000000000171596e+00 3.812645986879267213e+01
6.970000000000171170e+00 3.759192908569144009e+01
6.990000000000170743e+00 3.702349669375048080e+01
7.010000000000170317e+00 3.667272556755696655e+01
7.030000000000169891e+00 3.660498509833580272e+01
7.050000000000169464e+00 3.621443800765211307e+01
7.070000000000169038e+00 3.563777092186483486e+01
7.090000000000168612e+00 3.503179919432156453e+01
7.110000000000168185e+00 3.509292387766667076e+01
7.130000000000167759e+00 3.462891930747697700e+01
7.150000000000167333e+00 3.471457771958124283e+01
7.170000000000166906e+00 3.382123393282790857e+01
7.190000000000166480e+00 3.370812239693997014e+01
7.210000000000166054e+00 3.373865575788439486e+01
7.230000000000165628e+00 3.331815531791523455e+01
7.250000000000165201e+00 3.325490283259924951e+01
7.270000000000164775e+00 3.276285557543748439e+01
7.290000000000164349e+00 3.253717573096915316e+01
7.310000000000163922e+00 3.222964261312708345e+01
7.330000000000163496e+00 3.182779193505220050e+01
7.350000000000163070e+00 3.166043568773267580e+01
7.370000000000162643e+00 3.137043142997000089e+01
7.390000000000162217e+00 3.143056811463910094e+01
7.410000000000161791e+00 3.074127872754564805e+01
7.430000000000161364e+00 3.130207694018525189e+01
7.450000000000160938e+00 3.050005020661775035e+01
7.470000000000160512e+00 3.084769529645503638e+01
7.490000000000160085e+00 3.022478409753181339e+01
7.510000000000159659e+00 3.024132632581752134e+01
7.530000000000159233e+00 2.994924078809658141e+01
7.550000000000158806e+00 2.984434474353542299e+01
7.570000000000158380e+00 2.996642775482914089e+01
7.590000000000157954e+00 2.945987272702165427e+01
7.610000000000157527e+00 2.931584766012933230e+01
7.630000000000157101e+00 2.896013021680290223e+01
7.650000000000156675e+00 2.924747037775469494e+01
7.670000000000156248e+00 2.934029271047275245e+01
7.690000000000155822e+00 2.934567710926853223e+01
7.710000000000155396e+00 2.906656162108260943e+01
7.730000000000154969e+00 2.906223012828470331e+01
7.750000000000154543e+00 2.885038373687610758e+01
7.770000000000154117e+00 2.892589610303245351e+01
7.790000000000153690e+00 2.866477245032031362e+01
7.810000000000153264e+00 2.878611557420078881e+01
7.830000000000152838e+00 2.838072120999890302e+01
7.850000000000152411e+00 2.846508802406613725e+01
7.870000000000151985e+00 2.832221832233877024e+01
7.890000000000151559e+00 2.835328968951570161e+01
7.910000000000151132e+00 2.847501563166348504e+01
7.930000000000150706e+00 2.829684697110679537e+01
7.950000000000150280e+00 2.837552879322243982e+01
7.970000000000149853e+00 2.833024696315553825e+01
