# Redshift		Merger Rate Density [Gpc^-3yr^-1]
1.000000000031931770e-02 2.195900448159976293e+01
3.000000000031888964e-02 2.293463065206553964e+01
5.000000000031846331e-02 2.408114206126114709e+01
7.000000000031804392e-02 2.507334103400828695e+01
9.000000000031761760e-02 2.632927353563016126e+01
1.100000000003171913e-01 2.743396483851130441e+01
1.300000000003167511e-01 2.868929703554854527e+01
1.500000000003163247e-01 2.985821240786013320e+01
1.700000000003158984e-01 3.120559921348209897e+01
1.900000000003154721e-01 3.239392589953586565e+01
2.100000000003150458e-01 3.383256241398847664e+01
2.300000000003146194e-01 3.518373477439991603e+01
2.500000000003141931e-01 3.648232487685722703e+01
2.700000000003137668e-01 3.796975054265214311e+01
2.900000000003133405e-01 3.931783778747919200e+01
3.100000000003129141e-01 4.069933667726741788e+01
3.300000000003124878e-01 4.213447455865176039e+01
3.500000000003120615e-01 4.352548084884715962e+01
3.700000000003116352e-01 4.513756948732709873e+01
3.900000000003112088e-01 4.674426186387841398e+01
4.100000000003107825e-01 4.818218982866905264e+01
4.300000000003103562e-01 4.993823644361656022e+01
4.500000000003099299e-01 5.133223492563744372e+01
4.700000000003095035e-01 5.300326846496940192e+01
4.900000000003090772e-01 5.472926513338040166e+01
5.100000000003086509e-01 5.622620748897359277e+01
5.300000000003082246e-01 5.813465736853328991e+01
5.500000000003077982e-01 5.988117458918676306e+01
5.700000000003073719e-01 6.155517140854505698e+01
5.900000000003069456e-01 6.320661099010010275e+01
6.100000000003065193e-01 6.498674874590328443e+01
6.300000000003060929e-01 6.701046249436133451e+01
6.500000000003056666e-01 6.890239753258343569e+01
6.700000000003052403e-01 7.068953117715736312e+01
6.900000000003048140e-01 7.256651802647044747e+01
7.100000000003043876e-01 7.442135384028077283e+01
7.300000000003039613e-01 7.632513022268591385e+01
7.500000000003035350e-01 7.876424696661668179e+01
7.700000000003031086e-01 8.021758985310923151e+01
7.900000000003026823e-01 8.237848243511729152e+01
8.100000000003022560e-01 8.452992872189091145e+01
8.300000000003018297e-01 8.610457043682475842e+01
8.500000000003014033e-01 8.827444700889226681e+01
8.700000000003009770e-01 9.008849551878441275e+01
8.900000000003005507e-01 9.194931089843692007e+01
9.100000000003001244e-01 9.406881751488583632e+01
9.300000000002996980e-01 9.600063251605799053e+01
9.500000000002992717e-01 9.796818731301088690e+01
9.700000000002988454e-01 9.989838831322441592e+01
9.900000000002984191e-01 1.021796889865219669e+02
1.010000000000297993e+00 1.037877543151722790e+02
1.030000000000297566e+00 1.059190194142918102e+02
1.050000000000297140e+00 1.081007518703888621e+02
1.070000000000296714e+00 1.098881833301125113e+02
1.090000000000296287e+00 1.121346548821669273e+02
1.110000000000295861e+00 1.136594188692489666e+02
1.130000000000295435e+00 1.157891367442951065e+02
1.150000000000295008e+00 1.179044565599997725e+02
1.170000000000294582e+00 1.191428097609711898e+02
1.190000000000294156e+00 1.212288818549138512e+02
1.210000000000293729e+00 1.241884856654907168e+02
1.230000000000293303e+00 1.251953302758222861e+02
1.250000000000292877e+00 1.269640860336049144e+02
1.270000000000292451e+00 1.284304160788659033e+02
1.290000000000292024e+00 1.301407565898652194e+02
1.310000000000291598e+00 1.318616096162600400e+02
1.330000000000291172e+00 1.339754253786228730e+02
1.350000000000290745e+00 1.348416638628266924e+02
1.370000000000290319e+00 1.365906148772131985e+02
1.390000000000289893e+00 1.383011640511098506e+02
1.410000000000289466e+00 1.403425985064263557e+02
1.430000000000289040e+00 1.404354379808372926e+02
1.450000000000288614e+00 1.424053623851988561e+02
1.470000000000288187e+00 1.441446256355851006e+02
1.490000000000287761e+00 1.447455929141457318e+02
1.510000000000287335e+00 1.462103858718062668e+02
1.530000000000286908e+00 1.475082168321054610e+02
1.550000000000286482e+00 1.479670571837505122e+02
1.570000000000286056e+00 1.488500886010211843e+02
1.590000000000285629e+00 1.499725401674675140e+02
1.610000000000285203e+00 1.507762132099318535e+02
1.630000000000284777e+00 1.514953536766614093e+02
1.650000000000284350e+00 1.518881605021471159e+02
1.670000000000283924e+00 1.529895508334641363e+02
1.690000000000283498e+00 1.534450807329183988e+02
1.710000000000283071e+00 1.535184208858740931e+02
1.730000000000282645e+00 1.544114773941654448e+02
1.750000000000282219e+00 1.543486568125825329e+02
1.770000000000281792e+00 1.558095926950445289e+02
1.790000000000281366e+00 1.556988948920387941e+02
1.810000000000280940e+00 1.561047471948042755e+02
1.830000000000280513e+00 1.554013329745255589e+02
1.850000000000280087e+00 1.545181066415956366e+02
1.870000000000279661e+00 1.564129003206994355e+02
1.890000000000279234e+00 1.561430150556540184e+02
1.910000000000278808e+00 1.552981504838903675e+02
1.930000000000278382e+00 1.532332868339045433e+02
1.950000000000277955e+00 1.529711948554432297e+02
1.970000000000277529e+00 1.530047959045726600e+02
1.990000000000277103e+00 1.523934218213203451e+02
2.010000000000276899e+00 1.512016376856699367e+02
2.030000000000276472e+00 1.503867334162573854e+02
2.050000000000276046e+00 1.498372441144215657e+02
2.070000000000275620e+00 1.484034672796021539e+02
2.090000000000275193e+00 1.480485669208077013e+02
2.110000000000274767e+00 1.474533883008415671e+02
2.130000000000274341e+00 1.446057074133467211e+02
2.150000000000273914e+00 1.439347459840534782e+02
2.170000000000273488e+00 1.436286470071364931e+02
2.190000000000273062e+00 1.423619881399628184e+02
2.210000000000272635e+00 1.408955855015757948e+02
2.230000000000272209e+00 1.398185320427536453e+02
2.250000000000271783e+00 1.380794932760611289e+02
2.270000000000271356e+00 1.371244129775499800e+02
2.290000000000270930e+00 1.366901676451683443e+02
2.310000000000270504e+00 1.356260368650734449e+02
2.330000000000270077e+00 1.348860812901637587e+02
2.350000000000269651e+00 1.328013460304178750e+02
2.370000000000269225e+00 1.307107658107414068e+02
2.390000000000268798e+00 1.297202271236456568e+02
2.410000000000268372e+00 1.280493456400309356e+02
2.430000000000267946e+00 1.270184152526602759e+02
2.450000000000267519e+00 1.251311162236982852e+02
2.470000000000267093e+00 1.233057092417204785e+02
2.490000000000266667e+00 1.219088447692626147e+02
2.510000000000266240e+00 1.219689720219222266e+02
2.530000000000265814e+00 1.202627707125098766e+02
2.550000000000265388e+00 1.183743700447674172e+02
2.570000000000264961e+00 1.167740572513281876e+02
2.590000000000264535e+00 1.158541026040456501e+02
2.610000000000264109e+00 1.133476935306973132e+02
2.630000000000263682e+00 1.122351277533116303e+02
2.650000000000263256e+00 1.109256340156243112e+02
2.670000000000262830e+00 1.093010096275479839e+02
2.690000000000262403e+00 1.071080740821123811e+02
2.710000000000261977e+00 1.056638307803806498e+02
2.730000000000261551e+00 1.039006880534627726e+02
2.750000000000261124e+00 1.024915521493825992e+02
2.770000000000260698e+00 1.007574258545041772e+02
2.790000000000260272e+00 9.906719941992814427e+01
2.810000000000259845e+00 9.779522137929639314e+01
2.830000000000259419e+00 9.653270874260380197e+01
2.850000000000258993e+00 9.473471048060744693e+01
2.870000000000258567e+00 9.384410085005937674e+01
2.890000000000258140e+00 9.170289899684867407e+01
2.910000000000257714e+00 9.061562044178387509e+01
2.930000000000257288e+00 8.942208554346214555e+01
2.950000000000256861e+00 8.795997263373166675e+01
2.970000000000256435e+00 8.671613258355205289e+01
2.990000000000256009e+00 8.540493376957810767e+01
3.010000000000255582e+00 8.378898975141420635e+01
3.030000000000255156e+00 8.295895995049127691e+01
3.050000000000254730e+00 8.129145948055852955e+01
3.070000000000254303e+00 8.024222932025408284e+01
3.090000000000253877e+00 7.921639652913945895e+01
3.110000000000253451e+00 7.794043133225237341e+01
3.130000000000253024e+00 7.649376691345675283e+01
3.150000000000252598e+00 7.595813950445594287e+01
3.170000000000252172e+00 7.424098964597774852e+01
3.190000000000251745e+00 7.351810727046547811e+01
3.210000000000251319e+00 7.244342657064103719e+01
3.230000000000250893e+00 7.202851593737057101e+01
3.250000000000250466e+00 7.142199393512939309e+01
3.270000000000250040e+00 7.017748108533528750e+01
3.290000000000249614e+00 6.811407954198723758e+01
3.310000000000249187e+00 6.759922854517373025e+01
3.330000000000248761e+00 6.660222605606756474e+01
3.350000000000248335e+00 6.592527699632967142e+01
3.370000000000247908e+00 6.491740750328426657e+01
3.390000000000247482e+00 6.347044637741917938e+01
3.410000000000247056e+00 6.259764730801457944e+01
3.430000000000246629e+00 6.145420750418672640e+01
3.450000000000246203e+00 6.043357049281542714e+01
3.470000000000245777e+00 5.960080866724244686e+01
3.490000000000245350e+00 5.951168702022793866e+01
3.510000000000244924e+00 5.870764715129003974e+01
3.530000000000244498e+00 5.728599974525813110e+01
3.550000000000244071e+00 5.626792990609693135e+01
3.570000000000243645e+00 5.566123962322988916e+01
3.590000000000243219e+00 5.452899895331351843e+01
3.610000000000242792e+00 5.433071676381506165e+01
3.630000000000242366e+00 5.331311514123826356e+01
3.650000000000241940e+00 5.255781626842662035e+01
3.670000000000241513e+00 5.198508834340101714e+01
3.690000000000241087e+00 5.117918268055296949e+01
3.710000000000240661e+00 5.042820601330124930e+01
3.730000000000240234e+00 4.978346146962660868e+01
3.750000000000239808e+00 4.914872582548868962e+01
3.770000000000239382e+00 4.797617681744232954e+01
3.790000000000238956e+00 4.761780813434491222e+01
3.810000000000238529e+00 4.711637898249028922e+01
3.830000000000238103e+00 4.625513875117317042e+01
3.850000000000237677e+00 4.556070280650880022e+01
3.870000000000237250e+00 4.502599585433972607e+01
3.890000000000236824e+00 4.424327437021796072e+01
3.910000000000236398e+00 4.353518581206424898e+01
3.930000000000235971e+00 4.307036528780388096e+01
3.950000000000235545e+00 4.281695011893106795e+01
3.970000000000235119e+00 4.217108224307204267e+01
3.990000000000234692e+00 4.162122934997790935e+01
4.010000000000234266e+00 4.132815703931299822e+01
4.030000000000233840e+00 4.037539418417122050e+01
4.050000000000233413e+00 3.996168929568669625e+01
4.070000000000232987e+00 3.965302762401928760e+01
4.090000000000232561e+00 3.898061502199673356e+01
4.110000000000232134e+00 3.890314665467048627e+01
4.130000000000231708e+00 3.846312294774327967e+01
4.150000000000231282e+00 3.814942427843823225e+01
4.170000000000230855e+00 3.796938960449497813e+01
4.190000000000230429e+00 3.766299148184829448e+01
4.210000000000230003e+00 3.753432618273274812e+01
4.230000000000229576e+00 3.691014093974262522e+01
4.250000000000229150e+00 3.620554028680592751e+01
4.270000000000228724e+00 3.545726675342688594e+01
4.290000000000228297e+00 3.531202284500150768e+01
4.310000000000227871e+00 3.459162888697569826e+01
4.330000000000227445e+00 3.443888260978978622e+01
4.350000000000227018e+00 3.433643879129517984e+01
4.370000000000226592e+00 3.378018773160755472e+01
4.390000000000226166e+00 3.324075666452262112e+01
4.410000000000225739e+00 3.291361902185134625e+01
4.430000000000225313e+00 3.254056183849475303e+01
4.450000000000224887e+00 3.215911472700005902e+01
4.470000000000224460e+00 3.173805562147671111e+01
4.490000000000224034e+00 3.162171073111815289e+01
4.510000000000223608e+00 3.143333438676013714e+01
4.530000000000223181e+00 3.123196082759680081e+01
4.550000000000222755e+00 3.068329964834045498e+01
4.570000000000222329e+00 3.011646719193721822e+01
4.590000000000221902e+00 2.969919646374850686e+01
4.610000000000221476e+00 2.942041554170265982e+01
4.630000000000221050e+00 2.906665200602751753e+01
4.650000000000220624e+00 2.887958385401489281e+01
4.670000000000220197e+00 2.876454752262703352e+01
4.690000000000219771e+00 2.824919664612613346e+01
4.710000000000219345e+00 2.815137002780413411e+01
4.730000000000218918e+00 2.784114859690228272e+01
4.750000000000218492e+00 2.738027580294392749e+01
4.770000000000218066e+00 2.692961585962630977e+01
4.790000000000217639e+00 2.691794694201198368e+01
4.810000000000217213e+00 2.676332370470645472e+01
4.830000000000216787e+00 2.656807402554435527e+01
4.850000000000216360e+00 2.610880762167895952e+01
4.870000000000215934e+00 2.568857819093820893e+01
4.890000000000215508e+00 2.550827801922391913e+01
4.910000000000215081e+00 2.517126251640716106e+01
4.930000000000214655e+00 2.517479310459480857e+01
4.950000000000214229e+00 2.511145601157964080e+01
4.970000000000213802e+00 2.484950073334054466e+01
4.990000000000213376e+00 2.461575484410362336e+01
5.010000000000212950e+00 2.413786224682639059e+01
5.030000000000212523e+00 2.364129026666623901e+01
5.050000000000212097e+00 2.342937177247956271e+01
5.070000000000211671e+00 2.312689093293000653e+01
5.090000000000211244e+00 2.287406960446812221e+01
5.110000000000210818e+00 2.280071205040464122e+01
5.130000000000210392e+00 2.262258329387909939e+01
5.150000000000209965e+00 2.212372811210692092e+01
5.170000000000209539e+00 2.182276167440308257e+01
5.190000000000209113e+00 2.174241883950808685e+01
5.210000000000208686e+00 2.139233740463115652e+01
5.230000000000208260e+00 2.143483427880120828e+01
5.250000000000207834e+00 2.106279923216220595e+01
5.270000000000207407e+00 2.074300550451998859e+01
5.290000000000206981e+00 2.071232994972402253e+01
5.310000000000206555e+00 2.060450638987830629e+01
5.330000000000206128e+00 2.048582167245541541e+01
5.350000000000205702e+00 2.020837557450834865e+01
5.370000000000205276e+00 1.966852577562319837e+01
5.390000000000204849e+00 1.950750934905666512e+01
5.410000000000204423e+00 1.932683254405348450e+01
5.430000000000203997e+00 1.905177552902939908e+01
5.450000000000203570e+00 1.880064046463046523e+01
5.470000000000203144e+00 1.858030326987506342e+01
5.490000000000202718e+00 1.860815948595304903e+01
5.510000000000202292e+00 1.832903297356229899e+01
5.530000000000201865e+00 1.794198309065275510e+01
5.550000000000201439e+00 1.810644273637247892e+01
5.570000000000201013e+00 1.790431095928518346e+01
5.590000000000200586e+00 1.775359537213274308e+01
5.610000000000200160e+00 1.757789694688154114e+01
5.630000000000199734e+00 1.727174847320372564e+01
5.650000000000199307e+00 1.704720353542081668e+01
5.670000000000198881e+00 1.659146020742948124e+01
5.690000000000198455e+00 1.639142614078370030e+01
5.710000000000198028e+00 1.591404102814344945e+01
5.730000000000197602e+00 1.578638073688011545e+01
5.750000000000197176e+00 1.587694017551411463e+01
5.770000000000196749e+00 1.554682109790623734e+01
5.790000000000196323e+00 1.535786486281976870e+01
5.810000000000195897e+00 1.495167482141799553e+01
5.830000000000195470e+00 1.483556614557008757e+01
5.850000000000195044e+00 1.463974574418258001e+01
5.870000000000194618e+00 1.452210617406213089e+01
5.890000000000194191e+00 1.436052093391527862e+01
5.910000000000193765e+00 1.407421975418446358e+01
5.930000000000193339e+00 1.381492807709900106e+01
5.950000000000192912e+00 1.381724880796580024e+01
5.970000000000192486e+00 1.348083205150115305e+01
5.990000000000192060e+00 1.355675438219162388e+01
6.010000000000191633e+00 1.315447339282548533e+01
6.030000000000191207e+00 1.311652629793670677e+01
6.050000000000190781e+00 1.278322267135822266e+01
6.070000000000190354e+00 1.264443565451379570e+01
6.090000000000189928e+00 1.246434505332407383e+01
6.110000000000189502e+00 1.243703865934117481e+01
6.130000000000189075e+00 1.244385645182755340e+01
6.150000000000188649e+00 1.208011945270576604e+01
6.170000000000188223e+00 1.189720897384393439e+01
6.190000000000187796e+00 1.169416858499408995e+01
6.210000000000187370e+00 1.154494077195924895e+01
6.230000000000186944e+00 1.115215923182524449e+01
6.250000000000186517e+00 1.114630404300995359e+01
6.270000000000186091e+00 1.082807119642932037e+01
6.290000000000185665e+00 1.066346082663418393e+01
6.310000000000185238e+00 1.066366304327764603e+01
6.330000000000184812e+00 1.036141529078203938e+01
6.350000000000184386e+00 1.033688272483482073e+01
6.370000000000183960e+00 1.005901282870646796e+01
6.390000000000183533e+00 9.801791445698370353e+00
6.410000000000183107e+00 9.731038878890384325e+00
6.430000000000182681e+00 9.752684431791671216e+00
6.450000000000182254e+00 9.673522993564240835e+00
6.470000000000181828e+00 9.369002261053283931e+00
6.490000000000181402e+00 9.068244836029988321e+00
6.510000000000180975e+00 8.980985632898706328e+00
6.530000000000180549e+00 8.741301723098397147e+00
6.550000000000180123e+00 8.607192040945662370e+00
6.570000000000179696e+00 8.543248393299132104e+00
6.590000000000179270e+00 8.442209953809092227e+00
6.610000000000178844e+00 8.304889931441271855e+00
6.630000000000178417e+00 8.203464645788734799e+00
6.650000000000177991e+00 7.969651460545934540e+00
6.670000000000177565e+00 7.904581698316127891e+00
6.690000000000177138e+00 7.662658627096958774e+00
6.710000000000176712e+00 7.585446262153151764e+00
6.730000000000176286e+00 7.456121649083971015e+00
6.750000000000175859e+00 7.155509024636836024e+00
6.770000000000175433e+00 7.103646464711399489e+00
6.790000000000175007e+00 6.930327358904404100e+00
6.810000000000174580e+00 6.834176045305507152e+00
6.830000000000174154e+00 6.791776116010307618e+00
6.850000000000173728e+00 6.745375875854579206e+00
6.870000000000173301e+00 6.493164382382989430e+00
6.890000000000172875e+00 6.377119153053391720e+00
6.910000000000172449e+00 6.347009019104910443e+00
6.930000000000172022e+00 6.334108460339010094e+00
6.950000000000171596e+00 6.251902675974748469e+00
6.970000000000171170e+00 6.215342939257358701e+00
6.990000000000170743e+00 5.902733985527778948e+00
7.010000000000170317e+00 5.843096014246229153e+00
7.030000000000169891e+00 5.669764854149494049e+00
7.050000000000169464e+00 5.567833214050278201e+00
7.070000000000169038e+00 5.563687675811586075e+00
7.090000000000168612e+00 5.309793622795463186e+00
7.110000000000168185e+00 5.308763244939685322e+00
7.130000000000167759e+00 5.142754874495429895e+00
7.150000000000167333e+00 5.003348534325041008e+00
7.170000000000166906e+00 4.924572620470121898e+00
7.190000000000166480e+00 4.808235942883492875e+00
7.210000000000166054e+00 4.688777824925725923e+00
7.230000000000165628e+00 4.614413371775012429e+00
7.250000000000165201e+00 4.562125428700765539e+00
7.270000000000164775e+00 4.488687058629318827e+00
7.290000000000164349e+00 4.361277892962923453e+00
7.310000000000163922e+00 4.373069420453361111e+00
7.330000000000163496e+00 4.172250432687079957e+00
7.350000000000163070e+00 4.107474839860341120e+00
7.370000000000162643e+00 4.109546351142847165e+00
7.390000000000162217e+00 4.087856609031086386e+00
7.410000000000161791e+00 4.009497205137683373e+00
7.430000000000161364e+00 4.106958061408339411e+00
7.450000000000160938e+00 3.981354525415587542e+00
7.470000000000160512e+00 3.730948405072751051e+00
7.490000000000160085e+00 3.670040826002443968e+00
7.510000000000159659e+00 3.559543410746643044e+00
7.530000000000159233e+00 3.547855851071382016e+00
7.550000000000158806e+00 3.463643778886037250e+00
7.570000000000158380e+00 3.361632058192904449e+00
7.590000000000157954e+00 3.300509533015606678e+00
7.610000000000157527e+00 3.230759422924533109e+00
7.630000000000157101e+00 3.209117016765890895e+00
7.650000000000156675e+00 3.082223737066906555e+00
7.670000000000156248e+00 3.039105849028497897e+00
7.690000000000155822e+00 3.012663496136700036e+00
7.710000000000155396e+00 2.960246747916524868e+00
7.730000000000154969e+00 2.881744559327943822e+00
7.750000000000154543e+00 2.862518070598159881e+00
7.770000000000154117e+00 2.791433524999588300e+00
7.790000000000153690e+00 2.751526714290313702e+00
7.810000000000153264e+00 2.769742076382976759e+00
7.830000000000152838e+00 2.686818104062618673e+00
7.850000000000152411e+00 2.742791992841681292e+00
7.870000000000151985e+00 2.656470603749963022e+00
7.890000000000151559e+00 2.520412262444897689e+00
7.910000000000151132e+00 2.473858175163927697e+00
7.930000000000150706e+00 2.413053208893736645e+00
7.950000000000150280e+00 2.367175820389354701e+00
7.970000000000149853e+00 2.292864305523140800e+00
