# Redshift		Merger Rate Density [Gpc^-3yr^-1]
1.000000000031931770e-02 1.404184936569639497e+01
3.000000000031888964e-02 1.474876858617291298e+01
5.000000000031846331e-02 1.529242624447899956e+01
7.000000000031804392e-02 1.608516767502307943e+01
9.000000000031761760e-02 1.682745741448763610e+01
1.100000000003171913e-01 1.765159111185354845e+01
1.300000000003167511e-01 1.838299369332515809e+01
1.500000000003163247e-01 1.917152336034591187e+01
1.700000000003158984e-01 1.988911237047297220e+01
1.900000000003154721e-01 2.093106379083808122e+01
2.100000000003150458e-01 2.151498330378450063e+01
2.300000000003146194e-01 2.230209202985250627e+01
2.500000000003141931e-01 2.314093514794260287e+01
2.700000000003137668e-01 2.407687511516494538e+01
2.900000000003133405e-01 2.483084550380802469e+01
3.100000000003129141e-01 2.569932609545024249e+01
3.300000000003124878e-01 2.657705102392662866e+01
3.500000000003120615e-01 2.751403358472727234e+01
3.700000000003116352e-01 2.850139827627662470e+01
3.900000000003112088e-01 2.943128196010300712e+01
4.100000000003107825e-01 3.027334174266675859e+01
4.300000000003103562e-01 3.141495824322857544e+01
4.500000000003099299e-01 3.247136378672426815e+01
4.700000000003095035e-01 3.346821870277706523e+01
4.900000000003090772e-01 3.443495136182271921e+01
5.100000000003086509e-01 3.541605245665110857e+01
5.300000000003082246e-01 3.649427083865751342e+01
5.500000000003077982e-01 3.782776814211045746e+01
5.700000000003073719e-01 3.893054782719531204e+01
5.900000000003069456e-01 3.980185352867249549e+01
6.100000000003065193e-01 4.084501684679548106e+01
6.300000000003060929e-01 4.204044082485972922e+01
6.500000000003056666e-01 4.335137508118252470e+01
6.700000000003052403e-01 4.420530639389829020e+01
6.900000000003048140e-01 4.529202355389875123e+01
7.100000000003043876e-01 4.649459040623462869e+01
7.300000000003039613e-01 4.782350317041682075e+01
7.500000000003035350e-01 4.914886064036377178e+01
7.700000000003031086e-01 4.995532208313782263e+01
7.900000000003026823e-01 5.138690187847486612e+01
8.100000000003022560e-01 5.232609892392379436e+01
8.300000000003018297e-01 5.351388703802034996e+01
8.500000000003014033e-01 5.499927844063898164e+01
8.700000000003009770e-01 5.600827328115693149e+01
8.900000000003005507e-01 5.733164394158737309e+01
9.100000000003001244e-01 5.877039841456539193e+01
9.300000000002996980e-01 5.914375531828923727e+01
9.500000000002992717e-01 6.058814785335506059e+01
9.700000000002988454e-01 6.175490510415190926e+01
9.900000000002984191e-01 6.290309255340747541e+01
1.010000000000297993e+00 6.366033794710838833e+01
1.030000000000297566e+00 6.550107290019927575e+01
1.050000000000297140e+00 6.643803137168832507e+01
1.070000000000296714e+00 6.805839984906074847e+01
1.090000000000296287e+00 6.794797610607818683e+01
1.110000000000295861e+00 6.964383748198079616e+01
1.130000000000295435e+00 7.039042599351073193e+01
1.150000000000295008e+00 7.157730416793081929e+01
1.170000000000294582e+00 7.258518808602900663e+01
1.190000000000294156e+00 7.395522448909531477e+01
1.210000000000293729e+00 7.504563659415359211e+01
1.230000000000293303e+00 7.497526014485957546e+01
1.250000000000292877e+00 7.690363346917317244e+01
1.270000000000292451e+00 7.706722437880422660e+01
1.290000000000292024e+00 7.772979576220700437e+01
1.310000000000291598e+00 7.918585916221337584e+01
1.330000000000291172e+00 8.004672159105371065e+01
1.350000000000290745e+00 8.026859646025106088e+01
1.370000000000290319e+00 8.138424489989291999e+01
1.390000000000289893e+00 8.202326141791408531e+01
1.410000000000289466e+00 8.305227647964704829e+01
1.430000000000289040e+00 8.341404029037913403e+01
1.450000000000288614e+00 8.411838012378338192e+01
1.470000000000288187e+00 8.501945404836185105e+01
1.490000000000287761e+00 8.473527798984373760e+01
1.510000000000287335e+00 8.555643716099537244e+01
1.530000000000286908e+00 8.587064022267703933e+01
1.550000000000286482e+00 8.649687518299842282e+01
1.570000000000286056e+00 8.718324598337277109e+01
1.590000000000285629e+00 8.741321314293693945e+01
1.610000000000285203e+00 8.770257244239081729e+01
1.630000000000284777e+00 8.748700196270876006e+01
1.650000000000284350e+00 8.765830696494921881e+01
1.670000000000283924e+00 8.830685654946178431e+01
1.690000000000283498e+00 8.797406877885684651e+01
1.710000000000283071e+00 8.807285848285725649e+01
1.730000000000282645e+00 8.795908230455165722e+01
1.750000000000282219e+00 8.865616359974946192e+01
1.770000000000281792e+00 8.812129822561536230e+01
1.790000000000281366e+00 8.790232064936141398e+01
1.810000000000280940e+00 8.790890095035740615e+01
1.830000000000280513e+00 8.794890168122950058e+01
1.850000000000280087e+00 8.771592667457740333e+01
1.870000000000279661e+00 8.771063332519590006e+01
1.890000000000279234e+00 8.749985165624839567e+01
1.910000000000278808e+00 8.647230877313128872e+01
1.930000000000278382e+00 8.660459161878723933e+01
1.950000000000277955e+00 8.635666492841866670e+01
1.970000000000277529e+00 8.610753476639769133e+01
1.990000000000277103e+00 8.592633836412552739e+01
2.010000000000276899e+00 8.513932016542030112e+01
2.030000000000276472e+00 8.465444100832273477e+01
2.050000000000276046e+00 8.397134791791361863e+01
2.070000000000275620e+00 8.299446711584843683e+01
2.090000000000275193e+00 8.224277149927446828e+01
2.110000000000274767e+00 8.166083562176947908e+01
2.130000000000274341e+00 8.068775303366409446e+01
2.150000000000273914e+00 8.010141178565368136e+01
2.170000000000273488e+00 7.940679864891505702e+01
2.190000000000273062e+00 7.807887469096358757e+01
2.210000000000272635e+00 7.739085682667845845e+01
2.230000000000272209e+00 7.619018895245210388e+01
2.250000000000271783e+00 7.602646363737994761e+01
2.270000000000271356e+00 7.571092368705892284e+01
2.290000000000270930e+00 7.494421099755633975e+01
2.310000000000270504e+00 7.433446474357516820e+01
2.330000000000270077e+00 7.355664375396860066e+01
2.350000000000269651e+00 7.171388119489981250e+01
2.370000000000269225e+00 7.060410064099728800e+01
2.390000000000268798e+00 6.923489502822891950e+01
2.410000000000268372e+00 6.876154586964244686e+01
2.430000000000267946e+00 6.746977566700616080e+01
2.450000000000267519e+00 6.638699494602155937e+01
2.470000000000267093e+00 6.527277040350337245e+01
2.490000000000266667e+00 6.506071933137741325e+01
2.510000000000266240e+00 6.377999893798198627e+01
2.530000000000265814e+00 6.390215593731699073e+01
2.550000000000265388e+00 6.232536819617804014e+01
2.570000000000264961e+00 6.139369529734965170e+01
2.590000000000264535e+00 6.106773899753077472e+01
2.610000000000264109e+00 5.928137099446792746e+01
2.630000000000263682e+00 5.823278424455436664e+01
2.650000000000263256e+00 5.823919266950284168e+01
2.670000000000262830e+00 5.658663652886438911e+01
2.690000000000262403e+00 5.512024497784246080e+01
2.710000000000261977e+00 5.409764999348848136e+01
2.730000000000261551e+00 5.320232279061196579e+01
2.750000000000261124e+00 5.188058349023599902e+01
2.770000000000260698e+00 5.146797300311892087e+01
2.790000000000260272e+00 4.992514175803414389e+01
2.810000000000259845e+00 4.919341170110927663e+01
2.830000000000259419e+00 4.821630312496714055e+01
2.850000000000258993e+00 4.722548226274373917e+01
2.870000000000258567e+00 4.684830755559467974e+01
2.890000000000258140e+00 4.556038118754307931e+01
2.910000000000257714e+00 4.468436870303210640e+01
2.930000000000257288e+00 4.385193461575094886e+01
2.950000000000256861e+00 4.300865248208901903e+01
2.970000000000256435e+00 4.235759398193993519e+01
2.990000000000256009e+00 4.170845213420053454e+01
3.010000000000255582e+00 4.090837012852711041e+01
3.030000000000255156e+00 4.018060787611544526e+01
3.050000000000254730e+00 3.928122460164177454e+01
3.070000000000254303e+00 3.863168329150258984e+01
3.090000000000253877e+00 3.820127943492762057e+01
3.110000000000253451e+00 3.727796113833969827e+01
3.130000000000253024e+00 3.657031511394816903e+01
3.150000000000252598e+00 3.613489238220960686e+01
3.170000000000252172e+00 3.508314643930598464e+01
3.190000000000251745e+00 3.450971537688467095e+01
3.210000000000251319e+00 3.391476577789747182e+01
3.230000000000250893e+00 3.343134198443277683e+01
3.250000000000250466e+00 3.278078066516683720e+01
3.270000000000250040e+00 3.233720091508872230e+01
3.290000000000249614e+00 3.133853986327175534e+01
3.310000000000249187e+00 3.091470969006118352e+01
3.330000000000248761e+00 3.055343983640251082e+01
3.350000000000248335e+00 2.987248471246488890e+01
3.370000000000247908e+00 2.913397168533005299e+01
3.390000000000247482e+00 2.860169193313078750e+01
3.410000000000247056e+00 2.818261726751080687e+01
3.430000000000246629e+00 2.774376026683150087e+01
3.450000000000246203e+00 2.730789538277099382e+01
3.470000000000245777e+00 2.679928832789664739e+01
3.490000000000245350e+00 2.635825967681793713e+01
3.510000000000244924e+00 2.586582066282106496e+01
3.530000000000244498e+00 2.528052646218995747e+01
3.550000000000244071e+00 2.462801929383503818e+01
3.570000000000243645e+00 2.431670701366523701e+01
3.590000000000243219e+00 2.393800440889021175e+01
3.610000000000242792e+00 2.355222887201128401e+01
3.630000000000242366e+00 2.305198965040979786e+01
3.650000000000241940e+00 2.255210136677991528e+01
3.670000000000241513e+00 2.241881027909299462e+01
3.690000000000241087e+00 2.214079922140961187e+01
3.710000000000240661e+00 2.163272893497731530e+01
3.730000000000240234e+00 2.128728825285305959e+01
3.750000000000239808e+00 2.072218883887520491e+01
3.770000000000239382e+00 2.004411819360790759e+01
3.790000000000238956e+00 1.971069149529043329e+01
3.810000000000238529e+00 1.954841181708242104e+01
3.830000000000238103e+00 1.912034591930730443e+01
3.850000000000237677e+00 1.853840195614491293e+01
3.870000000000237250e+00 1.839601295500821720e+01
3.890000000000236824e+00 1.800002794551059182e+01
3.910000000000236398e+00 1.745257730682940078e+01
3.930000000000235971e+00 1.725613758975715228e+01
3.950000000000235545e+00 1.682671619402345087e+01
3.970000000000235119e+00 1.661312234477364669e+01
3.990000000000234692e+00 1.625792899993472673e+01
4.010000000000234266e+00 1.584086319373936291e+01
4.030000000000233840e+00 1.553483245865552576e+01
4.050000000000233413e+00 1.526557525432066953e+01
4.070000000000232987e+00 1.502599127993866723e+01
4.090000000000232561e+00 1.478067508483211334e+01
4.110000000000232134e+00 1.461065730974178400e+01
4.130000000000231708e+00 1.434287363457008624e+01
4.150000000000231282e+00 1.415490155340582490e+01
4.170000000000230855e+00 1.380212821525537592e+01
4.190000000000230429e+00 1.353963226314054324e+01
4.210000000000230003e+00 1.322373535136764033e+01
4.230000000000229576e+00 1.291686469938578874e+01
4.250000000000229150e+00 1.255710067573344979e+01
4.270000000000228724e+00 1.229509529955517699e+01
4.290000000000228297e+00 1.198991924965774380e+01
4.310000000000227871e+00 1.178996088282836574e+01
4.330000000000227445e+00 1.172609300436825031e+01
4.350000000000227018e+00 1.149772122088662485e+01
4.370000000000226592e+00 1.113759155410891921e+01
4.390000000000226166e+00 1.097198658699099916e+01
4.410000000000225739e+00 1.082320289610158959e+01
4.430000000000225313e+00 1.064063026560737235e+01
4.450000000000224887e+00 1.031044273297543157e+01
4.470000000000224460e+00 1.024036473180592033e+01
4.490000000000224034e+00 1.010283664454418329e+01
4.510000000000223608e+00 9.786712826494424533e+00
4.530000000000223181e+00 9.672234255781754442e+00
4.550000000000222755e+00 9.352751166804983640e+00
4.570000000000222329e+00 9.188832638654954366e+00
4.590000000000221902e+00 9.007524524203766703e+00
4.610000000000221476e+00 9.016572760794446140e+00
4.630000000000221050e+00 8.732519435302545929e+00
4.650000000000220624e+00 8.513908603600304659e+00
4.670000000000220197e+00 8.375716246296553535e+00
4.690000000000219771e+00 8.148684443338712668e+00
4.710000000000219345e+00 8.027506607751023537e+00
4.730000000000218918e+00 7.959590563402246133e+00
4.750000000000218492e+00 7.689821054556962743e+00
4.770000000000218066e+00 7.680965534539852868e+00
4.790000000000217639e+00 7.583728802757335075e+00
4.810000000000217213e+00 7.350176172304967004e+00
4.830000000000216787e+00 7.118501839836886447e+00
4.850000000000216360e+00 7.010615860451873793e+00
4.870000000000215934e+00 6.771094044870480388e+00
4.890000000000215508e+00 6.767464578705425282e+00
4.910000000000215081e+00 6.573984690854610236e+00
4.930000000000214655e+00 6.463422388055431789e+00
4.950000000000214229e+00 6.304739581128581349e+00
4.970000000000213802e+00 6.278007099610786845e+00
4.990000000000213376e+00 6.104005725563943940e+00
5.010000000000212950e+00 5.958750618725887627e+00
5.030000000000212523e+00 5.745692813075627292e+00
5.050000000000212097e+00 5.628252958610021395e+00
5.070000000000211671e+00 5.633339136787897772e+00
5.090000000000211244e+00 5.509240909066882352e+00
5.110000000000210818e+00 5.348657070839916372e+00
5.130000000000210392e+00 5.259690139428212952e+00
5.150000000000209965e+00 5.144657144152075645e+00
5.170000000000209539e+00 5.101184736133214770e+00
5.190000000000209113e+00 4.926720547445028409e+00
5.210000000000208686e+00 4.818374677323302713e+00
5.230000000000208260e+00 4.885705771889978344e+00
5.250000000000207834e+00 4.703019803925634790e+00
5.270000000000207407e+00 4.593196673494486681e+00
5.290000000000206981e+00 4.564780141505362820e+00
5.310000000000206555e+00 4.467014613402803924e+00
5.330000000000206128e+00 4.388939095504929888e+00
5.350000000000205702e+00 4.414441958548405154e+00
5.370000000000205276e+00 4.164094436224234919e+00
5.390000000000204849e+00 4.157631061395552052e+00
5.410000000000204423e+00 4.006862887454340161e+00
5.430000000000203997e+00 3.895873275788137136e+00
5.450000000000203570e+00 3.858495022708297029e+00
5.470000000000203144e+00 3.794441728293316718e+00
5.490000000000202718e+00 3.678750952582045652e+00
5.510000000000202292e+00 3.619892754744560293e+00
5.530000000000201865e+00 3.551177905940154478e+00
5.550000000000201439e+00 3.537479947695767901e+00
5.570000000000201013e+00 3.418831707759999450e+00
5.590000000000200586e+00 3.336137318556149811e+00
5.610000000000200160e+00 3.283630598203110651e+00
5.630000000000199734e+00 3.263951300783358711e+00
5.650000000000199307e+00 3.188612944202245725e+00
5.670000000000198881e+00 3.115579693484320067e+00
5.690000000000198455e+00 3.007876536177945592e+00
5.710000000000198028e+00 2.881662913549912552e+00
5.730000000000197602e+00 2.899379070324978436e+00
5.750000000000197176e+00 2.930968393913150116e+00
5.770000000000196749e+00 2.749802954277608347e+00
5.790000000000196323e+00 2.743044314443487952e+00
5.810000000000195897e+00 2.650677447871462977e+00
5.830000000000195470e+00 2.612521409901078062e+00
5.850000000000195044e+00 2.601857538033958583e+00
5.870000000000194618e+00 2.534589401921746976e+00
5.890000000000194191e+00 2.480927950355886757e+00
5.910000000000193765e+00 2.375792572213041076e+00
5.930000000000193339e+00 2.411887447990790356e+00
5.950000000000192912e+00 2.342508018799097425e+00
5.970000000000192486e+00 2.342607213554286805e+00
5.990000000000192060e+00 2.309312436142383795e+00
6.010000000000191633e+00 2.201695549584814504e+00
6.030000000000191207e+00 2.176497706819978450e+00
6.050000000000190781e+00 2.131127750945588595e+00
6.070000000000190354e+00 2.086541664303429133e+00
6.090000000000189928e+00 2.019615528510873226e+00
6.110000000000189502e+00 2.012424907846042110e+00
6.130000000000189075e+00 1.985703320682451034e+00
6.150000000000188649e+00 1.972064048502013556e+00
6.170000000000188223e+00 1.885847947470427277e+00
6.190000000000187796e+00 1.868888443746035799e+00
6.210000000000187370e+00 1.939130462446114089e+00
6.230000000000186944e+00 1.811228628480182623e+00
6.250000000000186517e+00 1.785825839459675990e+00
6.270000000000186091e+00 1.749714833071350562e+00
6.290000000000185665e+00 1.703084064170981682e+00
6.310000000000185238e+00 1.681305226326602398e+00
6.330000000000184812e+00 1.620553056813512027e+00
6.350000000000184386e+00 1.622177025619678581e+00
6.370000000000183960e+00 1.553722623018203297e+00
6.390000000000183533e+00 1.516667387592056215e+00
6.410000000000183107e+00 1.483571287616906265e+00
6.430000000000182681e+00 1.440117609271843513e+00
6.450000000000182254e+00 1.431964111140722196e+00
6.470000000000181828e+00 1.448922784738869263e+00
6.490000000000181402e+00 1.413412232651438449e+00
6.510000000000180975e+00 1.373710329349976167e+00
6.530000000000180549e+00 1.329738917364261974e+00
6.550000000000180123e+00 1.354967198409120499e+00
6.570000000000179696e+00 1.283927807572139868e+00
6.590000000000179270e+00 1.278252833735539662e+00
6.610000000000178844e+00 1.205325050830505784e+00
6.630000000000178417e+00 1.234545130410054981e+00
6.650000000000177991e+00 1.218114309909211102e+00
6.670000000000177565e+00 1.144341443483712917e+00
6.690000000000177138e+00 1.123226191134118590e+00
6.710000000000176712e+00 1.128536724421116633e+00
6.730000000000176286e+00 1.126213654954584698e+00
6.750000000000175859e+00 1.068425017671630339e+00
6.770000000000175433e+00 1.046183141430039099e+00
6.790000000000175007e+00 1.034003482979835686e+00
6.810000000000174580e+00 1.039619249328223471e+00
6.830000000000174154e+00 1.012015500491996178e+00
6.850000000000173728e+00 9.866358009537794516e-01
6.870000000000173301e+00 9.763722797575811185e-01
6.890000000000172875e+00 9.862401589770337651e-01
6.910000000000172449e+00 9.816214831565077681e-01
6.930000000000172022e+00 9.618402728992070383e-01
6.950000000000171596e+00 9.214524574134119739e-01
6.970000000000171170e+00 8.995369765952890839e-01
6.990000000000170743e+00 8.494339217979371970e-01
7.010000000000170317e+00 8.679569850038967305e-01
7.030000000000169891e+00 8.552961382840539306e-01
7.050000000000169464e+00 7.934926435452009930e-01
7.070000000000169038e+00 8.192593113747353994e-01
7.090000000000168612e+00 7.677237763832627238e-01
7.110000000000168185e+00 7.673075671941941289e-01
7.130000000000167759e+00 7.682677866261777844e-01
7.150000000000167333e+00 7.279918125171114252e-01
7.170000000000166906e+00 7.154514037362291745e-01
7.190000000000166480e+00 7.104733828553139174e-01
7.210000000000166054e+00 6.981915334990972388e-01
7.230000000000165628e+00 6.722258136550632868e-01
7.250000000000165201e+00 6.753891887465539590e-01
7.270000000000164775e+00 6.681395383117482156e-01
7.290000000000164349e+00 6.610039916809008487e-01
7.310000000000163922e+00 6.866008408614909797e-01
7.330000000000163496e+00 6.276635769372899132e-01
7.350000000000163070e+00 6.256886397915170095e-01
7.370000000000162643e+00 6.301223775475151001e-01
7.390000000000162217e+00 6.149299297733442637e-01
7.410000000000161791e+00 5.824549466820154731e-01
7.430000000000161364e+00 5.983482669600344028e-01
7.450000000000160938e+00 5.744150875647742183e-01
7.470000000000160512e+00 5.501659988770862819e-01
7.490000000000160085e+00 5.442796704862093993e-01
7.510000000000159659e+00 5.388453514138568101e-01
7.530000000000159233e+00 5.329460001977889272e-01
7.550000000000158806e+00 5.243915065312619861e-01
7.570000000000158380e+00 4.979369929547512452e-01
7.590000000000157954e+00 5.015938310239344000e-01
7.610000000000157527e+00 4.977724302933591027e-01
7.630000000000157101e+00 4.913283366001622854e-01
7.650000000000156675e+00 4.685657253908769859e-01
7.670000000000156248e+00 4.587979604573992343e-01
7.690000000000155822e+00 4.913970214982933959e-01
7.710000000000155396e+00 4.718552967363044970e-01
7.730000000000154969e+00 4.524810733820944786e-01
7.750000000000154543e+00 4.481661392394927779e-01
7.770000000000154117e+00 4.252204178526882705e-01
7.790000000000153690e+00 4.392781219017445338e-01
7.810000000000153264e+00 4.261963536122831409e-01
7.830000000000152838e+00 3.965804001807394785e-01
7.850000000000152411e+00 4.139379550672998564e-01
7.870000000000151985e+00 3.933108638379514965e-01
7.890000000000151559e+00 3.912369097374276405e-01
7.910000000000151132e+00 4.099599151576779898e-01
7.930000000000150706e+00 3.907375504116716858e-01
7.950000000000150280e+00 3.799209001223088356e-01
7.970000000000149853e+00 3.602885796557694364e-01
