# Redshift		Merger Rate Density [Gpc^-3yr^-1]
1.000000000031931770e-02 1.152509515630664794e+02
3.000000000031888964e-02 1.172644444569513382e+02
5.000000000031846331e-02 1.196281391593946211e+02
7.000000000031804392e-02 1.216982350999429201e+02
9.000000000031761760e-02 1.232177811180716418e+02
1.100000000003171913e-01 1.257730969430908772e+02
1.300000000003167511e-01 1.279710421485954868e+02
1.500000000003163247e-01 1.304497682836940271e+02
1.700000000003158984e-01 1.329620962051208153e+02
1.900000000003154721e-01 1.362159848261917148e+02
2.100000000003150458e-01 1.381820080217671034e+02
2.300000000003146194e-01 1.416575074210451248e+02
2.500000000003141931e-01 1.441647678738218019e+02
2.700000000003137668e-01 1.472313118614997052e+02
2.900000000003133405e-01 1.504814349557253479e+02
3.100000000003129141e-01 1.533282915056801130e+02
3.300000000003124878e-01 1.555858941404889038e+02
3.500000000003120615e-01 1.586937122220574565e+02
3.700000000003116352e-01 1.622817301873323004e+02
3.900000000003112088e-01 1.644796428532309562e+02
4.100000000003107825e-01 1.676388132613018058e+02
4.300000000003103562e-01 1.696733379874759464e+02
4.500000000003099299e-01 1.738844523442328125e+02
4.700000000003095035e-01 1.752436769881485645e+02
4.900000000003090772e-01 1.801287411739042170e+02
5.100000000003086509e-01 1.802325838380301946e+02
5.300000000003082246e-01 1.846865367768623969e+02
5.500000000003077982e-01 1.873725853080653678e+02
5.700000000003073719e-01 1.892461473693922756e+02
5.900000000003069456e-01 1.928549759666690875e+02
6.100000000003065193e-01 1.952526359059817196e+02
6.300000000003060929e-01 1.987760632731391297e+02
6.500000000003056666e-01 2.021166951114487347e+02
6.700000000003052403e-01 2.032867050814541017e+02
6.900000000003048140e-01 2.065291552720868253e+02
7.100000000003043876e-01 2.099862882296528994e+02
7.300000000003039613e-01 2.123934943900209191e+02
7.500000000003035350e-01 2.159959797381983151e+02
7.700000000003031086e-01 2.180192354839831239e+02
7.900000000003026823e-01 2.200887144657177146e+02
8.100000000003022560e-01 2.225096613301290915e+02
8.300000000003018297e-01 2.267565877166721293e+02
8.500000000003014033e-01 2.299422371353045946e+02
8.700000000003009770e-01 2.306760340399883091e+02
8.900000000003005507e-01 2.338313341943865851e+02
9.100000000003001244e-01 2.356364687015434924e+02
9.300000000002996980e-01 2.380987413424415706e+02
9.500000000002992717e-01 2.409336353140812150e+02
9.700000000002988454e-01 2.441857894709551715e+02
9.900000000002984191e-01 2.458088765186691944e+02
1.010000000000297993e+00 2.482055555684866874e+02
1.030000000000297566e+00 2.509171982086684523e+02
1.050000000000297140e+00 2.532415902503815630e+02
1.070000000000296714e+00 2.555032751236251443e+02
1.090000000000296287e+00 2.570424184595317456e+02
1.110000000000295861e+00 2.604384270825658518e+02
1.130000000000295435e+00 2.613568335570411705e+02
1.150000000000295008e+00 2.627231035727270410e+02
1.170000000000294582e+00 2.663476539432070922e+02
1.190000000000294156e+00 2.683077862601845140e+02
1.210000000000293729e+00 2.697717469854806041e+02
1.230000000000293303e+00 2.719174386656454203e+02
1.250000000000292877e+00 2.721359101965213654e+02
1.270000000000292451e+00 2.754550598831257275e+02
1.290000000000292024e+00 2.777296286337577271e+02
1.310000000000291598e+00 2.779561366307149228e+02
1.330000000000291172e+00 2.790651374051317930e+02
1.350000000000290745e+00 2.816557461216001457e+02
1.370000000000290319e+00 2.820334952185796737e+02
1.390000000000289893e+00 2.848541192403409923e+02
1.410000000000289466e+00 2.865323839709551521e+02
1.430000000000289040e+00 2.868238393035929903e+02
1.450000000000288614e+00 2.874024671984801103e+02
1.470000000000288187e+00 2.887803258032774920e+02
1.490000000000287761e+00 2.912295886808958585e+02
1.510000000000287335e+00 2.904656283781369552e+02
1.530000000000286908e+00 2.931261296923855753e+02
1.550000000000286482e+00 2.923502622734375223e+02
1.570000000000286056e+00 2.932368496169966079e+02
1.590000000000285629e+00 2.932204435589159743e+02
1.610000000000285203e+00 2.964762877506507834e+02
1.630000000000284777e+00 2.945623558374525714e+02
1.650000000000284350e+00 2.965043949613948371e+02
1.670000000000283924e+00 2.957742140315949655e+02
1.690000000000283498e+00 2.945818130512224684e+02
1.710000000000283071e+00 2.957363661205144467e+02
1.730000000000282645e+00 2.961973124729246365e+02
1.750000000000282219e+00 2.947795834596622058e+02
1.770000000000281792e+00 2.940167812076814471e+02
1.790000000000281366e+00 2.966137816702782857e+02
1.810000000000280940e+00 2.919984145269385181e+02
1.830000000000280513e+00 2.927121289221889242e+02
1.850000000000280087e+00 2.930387222116702333e+02
1.870000000000279661e+00 2.892128223433554695e+02
1.890000000000279234e+00 2.913247067317853407e+02
1.910000000000278808e+00 2.899417832693214336e+02
1.930000000000278382e+00 2.900592110526472425e+02
1.950000000000277955e+00 2.886947022818703203e+02
1.970000000000277529e+00 2.854257127079890211e+02
1.990000000000277103e+00 2.855716387185538565e+02
2.010000000000276899e+00 2.830689718909654289e+02
2.030000000000276472e+00 2.822076643620872574e+02
2.050000000000276046e+00 2.800387389449585953e+02
2.070000000000275620e+00 2.792145830909254869e+02
2.090000000000275193e+00 2.771789399450032079e+02
2.110000000000274767e+00 2.754280261273107158e+02
2.130000000000274341e+00 2.739180117693708212e+02
2.150000000000273914e+00 2.719565474223861656e+02
2.170000000000273488e+00 2.692668262563054782e+02
2.190000000000273062e+00 2.667970755057987162e+02
2.210000000000272635e+00 2.665340273001060609e+02
2.230000000000272209e+00 2.645898950059365689e+02
2.250000000000271783e+00 2.600162680684988459e+02
2.270000000000271356e+00 2.598716614419965367e+02
2.290000000000270930e+00 2.570918230349756755e+02
2.310000000000270504e+00 2.558214897870966524e+02
2.330000000000270077e+00 2.542151066005451980e+02
2.350000000000269651e+00 2.514597833981001997e+02
2.370000000000269225e+00 2.481605051824456041e+02
2.390000000000268798e+00 2.466127080490141168e+02
2.410000000000268372e+00 2.432237228704966867e+02
2.430000000000267946e+00 2.417306665530948351e+02
2.450000000000267519e+00 2.401393077630574169e+02
2.470000000000267093e+00 2.382895951560734318e+02
2.490000000000266667e+00 2.350353960218799045e+02
2.510000000000266240e+00 2.331931676590402844e+02
2.530000000000265814e+00 2.288548474848313958e+02
2.550000000000265388e+00 2.287528133733682978e+02
2.570000000000264961e+00 2.257233698769695991e+02
2.590000000000264535e+00 2.239194951132050448e+02
2.610000000000264109e+00 2.218190302647285819e+02
2.630000000000263682e+00 2.194952966262086704e+02
2.650000000000263256e+00 2.161044800356094981e+02
2.670000000000262830e+00 2.147074012217080110e+02
2.690000000000262403e+00 2.114952293144202713e+02
2.710000000000261977e+00 2.100881068879688769e+02
2.730000000000261551e+00 2.079284603850047404e+02
2.750000000000261124e+00 2.061442907799726640e+02
2.770000000000260698e+00 2.039394334357661762e+02
2.790000000000260272e+00 2.013623425715473445e+02
2.810000000000259845e+00 1.999344991216897824e+02
2.830000000000259419e+00 1.964525011238889363e+02
2.850000000000258993e+00 1.953696849765765364e+02
2.870000000000258567e+00 1.928895710051894241e+02
2.890000000000258140e+00 1.906519365548611802e+02
2.910000000000257714e+00 1.887359212450861037e+02
2.930000000000257288e+00 1.870617184742330039e+02
2.950000000000256861e+00 1.845669152436629190e+02
2.970000000000256435e+00 1.833739628950363851e+02
2.990000000000256009e+00 1.805593805363109539e+02
3.010000000000255582e+00 1.793306756468348908e+02
3.030000000000255156e+00 1.768431064347406050e+02
3.050000000000254730e+00 1.747898249681045115e+02
3.070000000000254303e+00 1.728645221706301811e+02
3.090000000000253877e+00 1.720023032778771039e+02
3.110000000000253451e+00 1.698077989891335733e+02
3.130000000000253024e+00 1.677762477446173079e+02
3.150000000000252598e+00 1.670496898518704256e+02
3.170000000000252172e+00 1.639823922755803949e+02
3.190000000000251745e+00 1.624589753806002079e+02
3.210000000000251319e+00 1.610509455839250563e+02
3.230000000000250893e+00 1.584057576143825941e+02
3.250000000000250466e+00 1.573102548518350545e+02
3.270000000000250040e+00 1.556421813118295177e+02
3.290000000000249614e+00 1.538783437991926348e+02
3.310000000000249187e+00 1.527103327017989045e+02
3.330000000000248761e+00 1.515660199799641248e+02
3.350000000000248335e+00 1.490759104631312653e+02
3.370000000000247908e+00 1.475844718222651295e+02
3.390000000000247482e+00 1.462676386786476144e+02
3.410000000000247056e+00 1.447455945637528032e+02
3.430000000000246629e+00 1.431767507028940543e+02
3.450000000000246203e+00 1.421070016484504208e+02
3.470000000000245777e+00 1.409190368675401146e+02
3.490000000000245350e+00 1.396418620429856503e+02
3.510000000000244924e+00 1.382036276367302037e+02
3.530000000000244498e+00 1.373202952691220275e+02
3.550000000000244071e+00 1.355970912030878992e+02
3.570000000000243645e+00 1.338442698008529135e+02
3.590000000000243219e+00 1.330808242065629940e+02
3.610000000000242792e+00 1.321462514518766511e+02
3.630000000000242366e+00 1.301074949499140132e+02
3.650000000000241940e+00 1.290063635486336295e+02
3.670000000000241513e+00 1.280922483215260854e+02
3.690000000000241087e+00 1.270949234958708445e+02
3.710000000000240661e+00 1.256645864180120640e+02
3.730000000000240234e+00 1.249003946630519977e+02
3.750000000000239808e+00 1.237628052901082611e+02
3.770000000000239382e+00 1.224777153190502190e+02
3.790000000000238956e+00 1.217566518657375809e+02
3.810000000000238529e+00 1.211024431494621325e+02
3.830000000000238103e+00 1.200335740125571249e+02
3.850000000000237677e+00 1.187116655247165653e+02
3.870000000000237250e+00 1.184036414620558162e+02
3.890000000000236824e+00 1.165132115442792156e+02
3.910000000000236398e+00 1.162140028241169176e+02
3.930000000000235971e+00 1.151908246396835125e+02
3.950000000000235545e+00 1.144349148452967313e+02
3.970000000000235119e+00 1.137476004985916944e+02
3.990000000000234692e+00 1.131701933180020490e+02
4.010000000000234266e+00 1.116207477745958414e+02
4.030000000000233840e+00 1.114150607148403083e+02
4.050000000000233413e+00 1.102283375972959050e+02
4.070000000000232987e+00 1.094835364527852164e+02
4.090000000000232561e+00 1.091099004714015734e+02
4.110000000000232134e+00 1.089050342459177756e+02
4.130000000000231708e+00 1.076083440727041562e+02
4.150000000000231282e+00 1.071396895402282610e+02
4.170000000000230855e+00 1.061925185525156650e+02
4.190000000000230429e+00 1.056799446733836021e+02
4.210000000000230003e+00 1.052728089096433735e+02
4.230000000000229576e+00 1.044990066226513932e+02
4.250000000000229150e+00 1.033255414610005829e+02
4.270000000000228724e+00 1.037000493915533355e+02
4.290000000000228297e+00 1.025546864721970053e+02
4.310000000000227871e+00 1.020982707940254386e+02
4.330000000000227445e+00 1.013226659193814214e+02
4.350000000000227018e+00 1.011930990680091327e+02
4.370000000000226592e+00 1.007814666632851583e+02
4.390000000000226166e+00 9.992769301365163415e+01
4.410000000000225739e+00 9.949059254363237415e+01
4.430000000000225313e+00 9.896326422871699435e+01
4.450000000000224887e+00 9.906436094045193386e+01
4.470000000000224460e+00 9.817114431218185189e+01
4.490000000000224034e+00 9.748978720939665266e+01
4.510000000000223608e+00 9.718505735220504960e+01
4.530000000000223181e+00 9.724024608992193919e+01
4.550000000000222755e+00 9.653102370885457617e+01
4.570000000000222329e+00 9.661947046903092939e+01
4.590000000000221902e+00 9.596491666099568363e+01
4.610000000000221476e+00 9.542076343021196294e+01
4.630000000000221050e+00 9.510703636776320025e+01
4.650000000000220624e+00 9.483166187586661522e+01
4.670000000000220197e+00 9.468092566737831817e+01
4.690000000000219771e+00 9.427739184450490484e+01
4.710000000000219345e+00 9.397509657812969408e+01
4.730000000000218918e+00 9.305177641541901323e+01
4.750000000000218492e+00 9.298263988941712910e+01
4.770000000000218066e+00 9.220728342448872183e+01
4.790000000000217639e+00 9.226746012770043137e+01
4.810000000000217213e+00 9.213891350320822937e+01
4.830000000000216787e+00 9.207323294686058546e+01
4.850000000000216360e+00 9.131630173286586682e+01
4.870000000000215934e+00 9.137603887079622211e+01
4.890000000000215508e+00 9.102663916503779262e+01
4.910000000000215081e+00 9.075999527998794747e+01
4.930000000000214655e+00 9.032864705910691328e+01
4.950000000000214229e+00 9.038689178173821404e+01
4.970000000000213802e+00 9.021952271157526582e+01
4.990000000000213376e+00 9.022032953801750921e+01
5.010000000000212950e+00 8.953336713268161873e+01
5.030000000000212523e+00 8.917883371171234330e+01
5.050000000000212097e+00 8.934086402855650988e+01
5.070000000000211671e+00 8.939167926965725997e+01
5.090000000000211244e+00 8.862564594403970375e+01
5.110000000000210818e+00 8.900304137623641054e+01
5.130000000000210392e+00 8.892795130329280084e+01
5.150000000000209965e+00 8.851781634690188127e+01
5.170000000000209539e+00 8.874144579298099700e+01
5.190000000000209113e+00 8.835434046581458745e+01
5.210000000000208686e+00 8.807374964785826421e+01
5.230000000000208260e+00 8.807497193013608694e+01
5.250000000000207834e+00 8.798081042086133152e+01
5.270000000000207407e+00 8.772437102041193668e+01
5.290000000000206981e+00 8.768357151105495007e+01
5.310000000000206555e+00 8.753233932698501008e+01
5.330000000000206128e+00 8.748197075822054103e+01
5.350000000000205702e+00 8.741512382610758891e+01
5.370000000000205276e+00 8.729024608687417697e+01
5.390000000000204849e+00 8.703095873938299576e+01
5.410000000000204423e+00 8.708522405058515403e+01
5.430000000000203997e+00 8.701235439025323615e+01
5.450000000000203570e+00 8.665657184235264765e+01
5.470000000000203144e+00 8.675143116845946167e+01
5.490000000000202718e+00 8.653485368430236235e+01
5.510000000000202292e+00 8.686615522621175955e+01
5.530000000000201865e+00 8.666648646512182097e+01
5.550000000000201439e+00 8.628296642072125167e+01
5.570000000000201013e+00 8.640659189719606559e+01
5.590000000000200586e+00 8.629754691330252570e+01
5.610000000000200160e+00 8.621934685975077173e+01
5.630000000000199734e+00 8.609211001483707548e+01
5.650000000000199307e+00 8.583763612681511290e+01
5.670000000000198881e+00 8.604509254147528452e+01
5.690000000000198455e+00 8.613084012724273464e+01
5.710000000000198028e+00 8.578118759707305685e+01
5.730000000000197602e+00 8.566964422746625019e+01
5.750000000000197176e+00 8.582400765831917511e+01
5.770000000000196749e+00 8.597562517967696749e+01
5.790000000000196323e+00 8.546531960956110652e+01
5.810000000000195897e+00 8.587835278395648686e+01
5.830000000000195470e+00 8.559699957271014625e+01
5.850000000000195044e+00 8.591932357843934653e+01
5.870000000000194618e+00 8.547707352765509370e+01
5.890000000000194191e+00 8.524449709843867140e+01
5.910000000000193765e+00 8.608278740675535801e+01
5.930000000000193339e+00 8.589368380245127810e+01
5.950000000000192912e+00 8.536123249566854554e+01
5.970000000000192486e+00 8.562987857436164063e+01
5.990000000000192060e+00 8.562406122286508037e+01
6.010000000000191633e+00 8.533284723773735436e+01
6.030000000000191207e+00 8.544788340159564655e+01
6.050000000000190781e+00 8.528206951459060292e+01
6.070000000000190354e+00 8.612191502956483191e+01
6.090000000000189928e+00 8.559837641207013803e+01
6.110000000000189502e+00 8.556043168581092573e+01
6.130000000000189075e+00 8.567646247109749424e+01
6.150000000000188649e+00 8.538262838126790655e+01
6.170000000000188223e+00 8.553283963947905022e+01
6.190000000000187796e+00 8.556365608976408055e+01
6.210000000000187370e+00 8.533459651623932984e+01
6.230000000000186944e+00 8.537481773487753856e+01
6.250000000000186517e+00 8.563199567664879908e+01
6.270000000000186091e+00 8.525997103945243794e+01
6.290000000000185665e+00 8.523365291444024194e+01
6.310000000000185238e+00 8.540879573142061076e+01
6.330000000000184812e+00 8.544596433255556178e+01
6.350000000000184386e+00 8.554016767791178211e+01
6.370000000000183960e+00 8.498735514409469260e+01
6.390000000000183533e+00 8.550766637774123069e+01
6.410000000000183107e+00 8.549891005391297938e+01
6.430000000000182681e+00 8.537949283908741904e+01
6.450000000000182254e+00 8.545566623775825121e+01
6.470000000000181828e+00 8.538746049513190428e+01
6.490000000000181402e+00 8.533298038942315600e+01
6.510000000000180975e+00 8.531727166091874892e+01
6.530000000000180549e+00 8.561675629189305425e+01
6.550000000000180123e+00 8.559240700991487927e+01
6.570000000000179696e+00 8.562760614919037039e+01
6.590000000000179270e+00 8.548789404253285795e+01
6.610000000000178844e+00 8.532614048232238702e+01
6.630000000000178417e+00 8.571133290414501005e+01
6.650000000000177991e+00 8.555514244129102508e+01
6.670000000000177565e+00 8.578223484644679786e+01
6.690000000000177138e+00 8.558424791679323107e+01
6.710000000000176712e+00 8.565176283521608980e+01
6.730000000000176286e+00 8.559812021141149785e+01
6.750000000000175859e+00 8.566014699624044226e+01
6.770000000000175433e+00 8.551499004329689058e+01
6.790000000000175007e+00 8.537374906122876439e+01
6.810000000000174580e+00 8.557747925421696777e+01
6.830000000000174154e+00 8.562528357182567618e+01
6.850000000000173728e+00 8.545957817124057954e+01
6.870000000000173301e+00 8.544100136296968628e+01
6.890000000000172875e+00 8.545630667282790682e+01
6.910000000000172449e+00 8.555589833896718233e+01
6.930000000000172022e+00 8.551323389631656369e+01
6.950000000000171596e+00 8.555810415678733705e+01
6.970000000000171170e+00 8.526868282793613218e+01
6.990000000000170743e+00 8.593549686350824857e+01
7.010000000000170317e+00 8.587660323311638422e+01
7.030000000000169891e+00 8.556879076004747731e+01
7.050000000000169464e+00 8.548499778221312795e+01
7.070000000000169038e+00 8.571392608338884145e+01
7.090000000000168612e+00 8.594560434763096168e+01
7.110000000000168185e+00 8.576578371586693095e+01
7.130000000000167759e+00 8.562065975108959037e+01
7.150000000000167333e+00 8.558289463657867202e+01
7.170000000000166906e+00 8.602016613801811218e+01
7.190000000000166480e+00 8.551825926132516997e+01
7.210000000000166054e+00 8.575655857017073913e+01
7.230000000000165628e+00 8.545719039306241882e+01
7.250000000000165201e+00 8.569339389645432448e+01
7.270000000000164775e+00 8.571624666470295040e+01
7.290000000000164349e+00 8.551250155423024069e+01
7.310000000000163922e+00 8.549789901207785192e+01
7.330000000000163496e+00 8.537119981113582412e+01
7.350000000000163070e+00 8.579593725726175535e+01
7.370000000000162643e+00 8.545780735447105769e+01
7.390000000000162217e+00 8.553166750656578188e+01
7.410000000000161791e+00 8.577175550862489217e+01
7.430000000000161364e+00 8.572873357886658141e+01
7.450000000000160938e+00 8.564721415017909578e+01
7.470000000000160512e+00 8.567759961372209432e+01
7.490000000000160085e+00 8.585655246414154362e+01
7.510000000000159659e+00 8.551458657801977381e+01
7.530000000000159233e+00 8.571699942520542947e+01
7.550000000000158806e+00 8.585456496893567646e+01
7.570000000000158380e+00 8.540014914053749351e+01
7.590000000000157954e+00 8.549289056243277685e+01
7.610000000000157527e+00 8.562279466397886551e+01
7.630000000000157101e+00 8.519295476390230704e+01
7.650000000000156675e+00 8.538774505140358428e+01
7.670000000000156248e+00 8.542385320990253206e+01
7.690000000000155822e+00 8.578366868102048670e+01
7.710000000000155396e+00 8.558983990277107523e+01
7.730000000000154969e+00 8.561551424400582277e+01
7.750000000000154543e+00 8.527231340419207584e+01
7.770000000000154117e+00 8.575878206377039703e+01
7.790000000000153690e+00 8.540547737121003991e+01
7.810000000000153264e+00 8.557977003822483653e+01
7.830000000000152838e+00 8.529228911837378746e+01
7.850000000000152411e+00 8.544745675670240814e+01
7.870000000000151985e+00 8.552589714179171665e+01
7.890000000000151559e+00 8.535489006848145266e+01
7.910000000000151132e+00 8.546715884420459020e+01
7.930000000000150706e+00 8.540485776126025996e+01
7.950000000000150280e+00 8.538297844414317694e+01
7.970000000000149853e+00 8.532000527223793540e+01
