# Redshift		Merger Rate Density [Gpc^-3yr^-1]
1.000000000031931770e-02 6.187963908128308788e+01
3.000000000031888964e-02 6.465747262071415946e+01
5.000000000031846331e-02 6.758801970476766030e+01
7.000000000031804392e-02 7.004838348010792970e+01
9.000000000031761760e-02 7.335592619990957530e+01
1.100000000003171913e-01 7.582504158518035808e+01
1.300000000003167511e-01 7.924062975411000309e+01
1.500000000003163247e-01 8.282730398089725554e+01
1.700000000003158984e-01 8.574520509470470131e+01
1.900000000003154721e-01 8.835418990379073989e+01
2.100000000003150458e-01 9.235016677218266068e+01
2.300000000003146194e-01 9.603154727748886899e+01
2.500000000003141931e-01 9.850855986199458414e+01
2.700000000003137668e-01 1.025246754924747279e+02
2.900000000003133405e-01 1.056484585567177845e+02
3.100000000003129141e-01 1.090332494113669100e+02
3.300000000003124878e-01 1.130450885826724630e+02
3.500000000003120615e-01 1.165299302605986185e+02
3.700000000003116352e-01 1.192524617869921002e+02
3.900000000003112088e-01 1.240390649117291275e+02
4.100000000003107825e-01 1.266182196963524547e+02
4.300000000003103562e-01 1.310129560203682217e+02
4.500000000003099299e-01 1.349334235704907883e+02
4.700000000003095035e-01 1.389130907236966550e+02
4.900000000003090772e-01 1.426751072716389501e+02
5.100000000003086509e-01 1.461404776834663721e+02
5.300000000003082246e-01 1.517904550463920543e+02
5.500000000003077982e-01 1.553324341933726487e+02
5.700000000003073719e-01 1.589019033168601993e+02
5.900000000003069456e-01 1.627438466146263352e+02
6.100000000003065193e-01 1.674836785813471920e+02
6.300000000003060929e-01 1.710186619566244701e+02
6.500000000003056666e-01 1.764112114216393934e+02
6.700000000003052403e-01 1.804188193373186380e+02
6.900000000003048140e-01 1.847759288802592721e+02
7.100000000003043876e-01 1.881378927982630955e+02
7.300000000003039613e-01 1.918925411265791467e+02
7.500000000003035350e-01 1.972036657594336191e+02
7.700000000003031086e-01 2.021748987209957136e+02
7.900000000003026823e-01 2.066429685516608856e+02
8.100000000003022560e-01 2.112684260779884369e+02
8.300000000003018297e-01 2.154343256330200518e+02
8.500000000003014033e-01 2.181495404628938104e+02
8.700000000003009770e-01 2.228977885839939290e+02
8.900000000003005507e-01 2.286012840682189449e+02
9.100000000003001244e-01 2.318099334981502579e+02
9.300000000002996980e-01 2.365731433377371786e+02
9.500000000002992717e-01 2.406344677329530271e+02
9.700000000002988454e-01 2.436363438171614177e+02
9.900000000002984191e-01 2.498588467513856983e+02
1.010000000000297993e+00 2.523365003439901386e+02
1.030000000000297566e+00 2.569740772620964435e+02
1.050000000000297140e+00 2.600635789839116683e+02
1.070000000000296714e+00 2.642385103970515843e+02
1.090000000000296287e+00 2.705659355408464535e+02
1.110000000000295861e+00 2.730023576841127806e+02
1.130000000000295435e+00 2.777670513159993675e+02
1.150000000000295008e+00 2.799505872415026602e+02
1.170000000000294582e+00 2.838623718250656793e+02
1.190000000000294156e+00 2.865204028405817098e+02
1.210000000000293729e+00 2.939174364062175187e+02
1.230000000000293303e+00 2.941551534413659965e+02
1.250000000000292877e+00 2.984231797227183165e+02
1.270000000000292451e+00 3.011340672417138080e+02
1.290000000000292024e+00 3.068260051671489919e+02
1.310000000000291598e+00 3.086380067670011158e+02
1.330000000000291172e+00 3.123687868185129446e+02
1.350000000000290745e+00 3.157182964742987679e+02
1.370000000000290319e+00 3.162223423780870917e+02
1.390000000000289893e+00 3.210205589679309810e+02
1.410000000000289466e+00 3.226971863022193361e+02
1.430000000000289040e+00 3.249156756560925032e+02
1.450000000000288614e+00 3.286138897101202474e+02
1.470000000000288187e+00 3.292452140273366012e+02
1.490000000000287761e+00 3.342943147753373978e+02
1.510000000000287335e+00 3.357170269478810383e+02
1.530000000000286908e+00 3.380498012022185321e+02
1.550000000000286482e+00 3.387363445986312058e+02
1.570000000000286056e+00 3.419231739814815114e+02
1.590000000000285629e+00 3.424668725282045330e+02
1.610000000000285203e+00 3.408815631819769578e+02
1.630000000000284777e+00 3.454503770907198259e+02
1.650000000000284350e+00 3.454543658683148237e+02
1.670000000000283924e+00 3.457730992328406501e+02
1.690000000000283498e+00 3.473151824883185554e+02
1.710000000000283071e+00 3.476068350070892166e+02
1.730000000000282645e+00 3.477993301608862566e+02
1.750000000000282219e+00 3.479527134133100503e+02
1.770000000000281792e+00 3.493553883310509605e+02
1.790000000000281366e+00 3.475851493197861828e+02
1.810000000000280940e+00 3.480011282029143445e+02
1.830000000000280513e+00 3.479845025124719768e+02
1.850000000000280087e+00 3.472678446265194907e+02
1.870000000000279661e+00 3.469313849707779696e+02
1.890000000000279234e+00 3.486877342670307485e+02
1.910000000000278808e+00 3.454723087828574535e+02
1.930000000000278382e+00 3.449670916876275442e+02
1.950000000000277955e+00 3.448566759570667273e+02
1.970000000000277529e+00 3.411551286802820186e+02
1.990000000000277103e+00 3.400315582770023752e+02
2.010000000000276899e+00 3.371764617774042563e+02
2.030000000000276472e+00 3.368312927941963153e+02
2.050000000000276046e+00 3.347573588850614783e+02
2.070000000000275620e+00 3.327772585070529203e+02
2.090000000000275193e+00 3.308227471725365376e+02
2.110000000000274767e+00 3.307243351146015016e+02
2.130000000000274341e+00 3.284704624714044030e+02
2.150000000000273914e+00 3.245114348589577276e+02
2.170000000000273488e+00 3.221309172642290832e+02
2.190000000000273062e+00 3.185241704384738455e+02
2.210000000000272635e+00 3.161909707224086219e+02
2.230000000000272209e+00 3.135901217598681114e+02
2.250000000000271783e+00 3.115919040361890779e+02
2.270000000000271356e+00 3.068280739901195489e+02
2.290000000000270930e+00 3.060558117959021160e+02
2.310000000000270504e+00 3.015706760231294652e+02
2.330000000000270077e+00 2.998772780660023614e+02
2.350000000000269651e+00 2.960542039744424301e+02
2.370000000000269225e+00 2.931200196833908080e+02
2.390000000000268798e+00 2.894603942050196110e+02
2.410000000000268372e+00 2.865164513850757544e+02
2.430000000000267946e+00 2.832648366181898041e+02
2.450000000000267519e+00 2.803405299438298357e+02
2.470000000000267093e+00 2.777142197739815401e+02
2.490000000000266667e+00 2.745239168969825414e+02
2.510000000000266240e+00 2.718907053858277436e+02
2.530000000000265814e+00 2.666576120963235894e+02
2.550000000000265388e+00 2.652074139503131960e+02
2.570000000000264961e+00 2.621138047715122639e+02
2.590000000000264535e+00 2.579905617825418744e+02
2.610000000000264109e+00 2.550113209053904200e+02
2.630000000000263682e+00 2.520875228893443989e+02
2.650000000000263256e+00 2.491987996779076866e+02
2.670000000000262830e+00 2.469885718032590489e+02
2.690000000000262403e+00 2.419524488102905195e+02
2.710000000000261977e+00 2.391898578814530083e+02
2.730000000000261551e+00 2.367718539742663495e+02
2.750000000000261124e+00 2.328488827437612656e+02
2.770000000000260698e+00 2.301192627769312651e+02
2.790000000000260272e+00 2.260970058843144841e+02
2.810000000000259845e+00 2.239115167000742019e+02
2.830000000000259419e+00 2.198531575805521072e+02
2.850000000000258993e+00 2.182757010015508001e+02
2.870000000000258567e+00 2.143646866120193692e+02
2.890000000000258140e+00 2.124156233024583855e+02
2.910000000000257714e+00 2.079201813878935639e+02
2.930000000000257288e+00 2.064520379119914253e+02
2.950000000000256861e+00 2.029909629069092887e+02
2.970000000000256435e+00 2.007716815764923410e+02
2.990000000000256009e+00 1.979151702417461536e+02
3.010000000000255582e+00 1.934609242481022306e+02
3.030000000000255156e+00 1.918929960427691697e+02
3.050000000000254730e+00 1.894742452992708763e+02
3.070000000000254303e+00 1.863004764985755912e+02
3.090000000000253877e+00 1.829724105700562689e+02
3.110000000000253451e+00 1.812279740795618181e+02
3.130000000000253024e+00 1.789779896697694710e+02
3.150000000000252598e+00 1.750331529056564079e+02
3.170000000000252172e+00 1.739724275006009577e+02
3.190000000000251745e+00 1.710411243886199486e+02
3.210000000000251319e+00 1.681188437419607453e+02
3.230000000000250893e+00 1.653972828448758321e+02
3.250000000000250466e+00 1.632266607526867972e+02
3.270000000000250040e+00 1.613673583978824126e+02
3.290000000000249614e+00 1.577876217347303225e+02
3.310000000000249187e+00 1.565720806038261799e+02
3.330000000000248761e+00 1.542246826675017246e+02
3.350000000000248335e+00 1.515997120142780830e+02
3.370000000000247908e+00 1.499598500958446436e+02
3.390000000000247482e+00 1.469408075531887334e+02
3.410000000000247056e+00 1.447116810035577714e+02
3.430000000000246629e+00 1.432608012921411103e+02
3.450000000000246203e+00 1.406408640182120280e+02
3.470000000000245777e+00 1.391098014360958359e+02
3.490000000000245350e+00 1.367043112052215577e+02
3.510000000000244924e+00 1.346576690984047104e+02
3.530000000000244498e+00 1.332286364977427127e+02
3.550000000000244071e+00 1.307679217161913527e+02
3.570000000000243645e+00 1.289372334645996148e+02
3.590000000000243219e+00 1.273468432212661270e+02
3.610000000000242792e+00 1.261658866338265312e+02
3.630000000000242366e+00 1.238099229937642036e+02
3.650000000000241940e+00 1.220275315135783387e+02
3.670000000000241513e+00 1.196790831701126478e+02
3.690000000000241087e+00 1.172526244123435788e+02
3.710000000000240661e+00 1.158838778958043321e+02
3.730000000000240234e+00 1.147189778936317168e+02
3.750000000000239808e+00 1.131311370327055670e+02
3.770000000000239382e+00 1.113836702664138301e+02
3.790000000000238956e+00 1.097618900382685041e+02
3.810000000000238529e+00 1.087069304101245706e+02
3.830000000000238103e+00 1.070015979195733138e+02
3.850000000000237677e+00 1.053311379458136798e+02
3.870000000000237250e+00 1.039911130793526297e+02
3.890000000000236824e+00 1.016567624467534898e+02
3.910000000000236398e+00 1.015265297859024116e+02
3.930000000000235971e+00 9.998303186941770093e+01
3.950000000000235545e+00 9.751583273190142620e+01
3.970000000000235119e+00 9.681901698074462104e+01
3.990000000000234692e+00 9.585326564261544036e+01
4.010000000000234266e+00 9.361016356356461188e+01
4.030000000000233840e+00 9.299447931917862320e+01
4.050000000000233413e+00 9.169558280134829431e+01
4.070000000000232987e+00 9.015557938661731896e+01
4.090000000000232561e+00 8.865627020589924712e+01
4.110000000000232134e+00 8.805972495701513481e+01
4.130000000000231708e+00 8.678394299182350835e+01
4.150000000000231282e+00 8.604802926375047889e+01
4.170000000000230855e+00 8.463312260927696684e+01
4.190000000000230429e+00 8.259868858561134175e+01
4.210000000000230003e+00 8.244625913357657510e+01
4.230000000000229576e+00 8.111997303036393703e+01
4.250000000000229150e+00 8.015154882312714335e+01
4.270000000000228724e+00 7.950693503676627927e+01
4.290000000000228297e+00 7.820568631009351179e+01
4.310000000000227871e+00 7.762305827608237507e+01
4.330000000000227445e+00 7.630263899406841688e+01
4.350000000000227018e+00 7.546918949864883075e+01
4.370000000000226592e+00 7.420844009751691317e+01
4.390000000000226166e+00 7.310023621701101604e+01
4.410000000000225739e+00 7.269480761742518382e+01
4.430000000000225313e+00 7.139628300918604964e+01
4.450000000000224887e+00 7.088428339753249929e+01
4.470000000000224460e+00 7.054841996618512212e+01
4.490000000000224034e+00 6.878515159324803108e+01
4.510000000000223608e+00 6.819868708396202805e+01
4.530000000000223181e+00 6.760070521590523640e+01
4.550000000000222755e+00 6.642282571617295162e+01
4.570000000000222329e+00 6.612617661543352199e+01
4.590000000000221902e+00 6.554043744985263231e+01
4.610000000000221476e+00 6.499145439875982788e+01
4.630000000000221050e+00 6.382970568662733513e+01
4.650000000000220624e+00 6.322893828601403499e+01
4.670000000000220197e+00 6.161346240709539757e+01
4.690000000000219771e+00 6.179683670405175633e+01
4.710000000000219345e+00 6.063529219028159645e+01
4.730000000000218918e+00 6.042962733586826118e+01
4.750000000000218492e+00 5.936447345672678466e+01
4.770000000000218066e+00 5.858441413645913087e+01
4.790000000000217639e+00 5.797899475377239042e+01
4.810000000000217213e+00 5.739696436258933687e+01
4.830000000000216787e+00 5.669569433858126928e+01
4.850000000000216360e+00 5.640646497968281636e+01
4.870000000000215934e+00 5.580407113589898671e+01
4.890000000000215508e+00 5.527116644008333424e+01
4.910000000000215081e+00 5.456382585293143705e+01
4.930000000000214655e+00 5.377365708973044178e+01
4.950000000000214229e+00 5.324294039294935033e+01
4.970000000000213802e+00 5.282609508712324242e+01
4.990000000000213376e+00 5.235580791058350059e+01
5.010000000000212950e+00 5.209621410029789956e+01
5.030000000000212523e+00 5.099056003860695796e+01
5.050000000000212097e+00 5.061959904033318480e+01
5.070000000000211671e+00 5.012756318263649291e+01
5.090000000000211244e+00 4.978063436104604023e+01
5.110000000000210818e+00 4.882986606967620702e+01
5.130000000000210392e+00 4.880193578314204217e+01
5.150000000000209965e+00 4.840533999444674151e+01
5.170000000000209539e+00 4.762142059504075320e+01
5.190000000000209113e+00 4.726180822174909935e+01
5.210000000000208686e+00 4.686270414601617063e+01
5.230000000000208260e+00 4.626279128103324467e+01
5.250000000000207834e+00 4.602686372264706449e+01
5.270000000000207407e+00 4.518752519164180370e+01
5.290000000000206981e+00 4.530785186834599898e+01
5.310000000000206555e+00 4.480368496137091938e+01
5.330000000000206128e+00 4.413434284074989478e+01
5.350000000000205702e+00 4.402973520762094495e+01
5.370000000000205276e+00 4.349771102552335122e+01
5.390000000000204849e+00 4.316827508047416728e+01
5.410000000000204423e+00 4.295606555920762304e+01
5.430000000000203997e+00 4.252098432546163309e+01
5.450000000000203570e+00 4.195545937301163519e+01
5.470000000000203144e+00 4.199199477464803465e+01
5.490000000000202718e+00 4.119268253085775910e+01
5.510000000000202292e+00 4.095995835778886374e+01
5.530000000000201865e+00 4.079957187173345545e+01
5.550000000000201439e+00 4.021146355508311387e+01
5.570000000000201013e+00 3.983519123228084879e+01
5.590000000000200586e+00 3.951172159343239088e+01
5.610000000000200160e+00 3.920946258057661282e+01
5.630000000000199734e+00 3.910030321478861026e+01
5.650000000000199307e+00 3.853169148077094519e+01
5.670000000000198881e+00 3.835726364900216367e+01
5.690000000000198455e+00 3.800777147652417653e+01
5.710000000000198028e+00 3.762837928976530577e+01
5.730000000000197602e+00 3.766795207384056710e+01
5.750000000000197176e+00 3.714301456910999377e+01
5.770000000000196749e+00 3.664777616991951703e+01
5.790000000000196323e+00 3.662862930827029828e+01
5.810000000000195897e+00 3.621348075611844308e+01
5.830000000000195470e+00 3.602440841709915986e+01
5.850000000000195044e+00 3.588802043303822131e+01
5.870000000000194618e+00 3.536962536529595980e+01
5.890000000000194191e+00 3.506203787722154885e+01
5.910000000000193765e+00 3.519224738522247264e+01
5.930000000000193339e+00 3.461535834750218044e+01
5.950000000000192912e+00 3.428683812366729455e+01
5.970000000000192486e+00 3.420838789164135818e+01
5.990000000000192060e+00 3.401074290712740122e+01
6.010000000000191633e+00 3.380514650318421133e+01
6.030000000000191207e+00 3.362912114659444285e+01
6.050000000000190781e+00 3.334722649658999671e+01
6.070000000000190354e+00 3.319626248036971816e+01
6.090000000000189928e+00 3.290822878223323755e+01
6.110000000000189502e+00 3.268413304632810679e+01
6.130000000000189075e+00 3.264209466066648702e+01
6.150000000000188649e+00 3.239037348291439145e+01
6.170000000000188223e+00 3.189841777494626385e+01
6.190000000000187796e+00 3.196748694682374037e+01
6.210000000000187370e+00 3.171575815379094010e+01
6.230000000000186944e+00 3.139351199175244034e+01
6.250000000000186517e+00 3.107232610062819589e+01
6.270000000000186091e+00 3.118167465286145301e+01
6.290000000000185665e+00 3.074671548170609015e+01
6.310000000000185238e+00 3.056800711481707467e+01
6.330000000000184812e+00 3.045428985233757757e+01
6.350000000000184386e+00 3.025771964059903851e+01
6.370000000000183960e+00 3.016224598747583130e+01
6.390000000000183533e+00 2.991926756339195492e+01
6.410000000000183107e+00 2.972297784529110842e+01
6.430000000000182681e+00 2.960995751512630747e+01
6.450000000000182254e+00 2.952784910661794626e+01
6.470000000000181828e+00 2.923832078123419009e+01
6.490000000000181402e+00 2.915630582610212684e+01
6.510000000000180975e+00 2.881449903295415282e+01
6.530000000000180549e+00 2.884304621266375079e+01
6.550000000000180123e+00 2.871098775998407149e+01
6.570000000000179696e+00 2.852985696303528584e+01
6.590000000000179270e+00 2.821725816090309280e+01
6.610000000000178844e+00 2.803629238295893700e+01
6.630000000000178417e+00 2.827207118848762946e+01
6.650000000000177991e+00 2.790362245728923796e+01
6.670000000000177565e+00 2.795716827224365275e+01
6.690000000000177138e+00 2.767152974321330561e+01
6.710000000000176712e+00 2.726031494733521399e+01
6.730000000000176286e+00 2.739720993532220916e+01
6.750000000000175859e+00 2.718781726251275543e+01
6.770000000000175433e+00 2.683018220809009691e+01
6.790000000000175007e+00 2.708055498526871574e+01
6.810000000000174580e+00 2.678056724928292098e+01
6.830000000000174154e+00 2.675720174393223871e+01
6.850000000000173728e+00 2.639885401676635368e+01
6.870000000000173301e+00 2.619030669168972025e+01
6.890000000000172875e+00 2.635591753889710276e+01
6.910000000000172449e+00 2.615307173549151543e+01
6.930000000000172022e+00 2.593129078316876956e+01
6.950000000000171596e+00 2.600763162284986763e+01
6.970000000000171170e+00 2.582162036820801987e+01
6.990000000000170743e+00 2.584100333216086653e+01
7.010000000000170317e+00 2.550309197134252415e+01
7.030000000000169891e+00 2.545910125503836952e+01
7.050000000000169464e+00 2.517685421941877166e+01
7.070000000000169038e+00 2.528422090717261739e+01
7.090000000000168612e+00 2.515039093718213792e+01
7.110000000000168185e+00 2.486013647818987948e+01
7.130000000000167759e+00 2.484277086190449069e+01
7.150000000000167333e+00 2.494414055725152934e+01
7.170000000000166906e+00 2.477831557248335059e+01
7.190000000000166480e+00 2.458899598278370036e+01
7.210000000000166054e+00 2.440253411778325088e+01
7.230000000000165628e+00 2.441989938277406935e+01
7.250000000000165201e+00 2.416260545986338570e+01
7.270000000000164775e+00 2.404231865443668070e+01
7.290000000000164349e+00 2.412009535490249945e+01
7.310000000000163922e+00 2.379825424653764898e+01
7.330000000000163496e+00 2.391438052943762926e+01
7.350000000000163070e+00 2.388554658272696329e+01
7.370000000000162643e+00 2.363840327201842584e+01
7.390000000000162217e+00 2.357439899959841156e+01
7.410000000000161791e+00 2.343657150523812049e+01
7.430000000000161364e+00 2.329027691843437964e+01
7.450000000000160938e+00 2.327152335909445924e+01
7.470000000000160512e+00 2.309070402378841536e+01
7.490000000000160085e+00 2.315505924476990174e+01
7.510000000000159659e+00 2.285472683084274337e+01
7.530000000000159233e+00 2.286575282360660921e+01
7.550000000000158806e+00 2.265847663615069507e+01
7.570000000000158380e+00 2.272939401462189579e+01
7.590000000000157954e+00 2.254146662407592672e+01
7.610000000000157527e+00 2.260848722384718812e+01
7.630000000000157101e+00 2.242030008607156333e+01
7.650000000000156675e+00 2.241191284460819233e+01
7.670000000000156248e+00 2.207659342672607750e+01
7.690000000000155822e+00 2.213970436122531638e+01
7.710000000000155396e+00 2.209997261843474448e+01
7.730000000000154969e+00 2.184768769771691410e+01
7.750000000000154543e+00 2.181602499185039079e+01
7.770000000000154117e+00 2.184063151006942149e+01
7.790000000000153690e+00 2.162272017279619618e+01
7.810000000000153264e+00 2.162697208681496264e+01
7.830000000000152838e+00 2.152621382300807440e+01
7.850000000000152411e+00 2.139557488380047090e+01
7.870000000000151985e+00 2.131272619056398554e+01
7.890000000000151559e+00 2.116751413691907402e+01
7.910000000000151132e+00 2.118505126612782519e+01
7.930000000000150706e+00 2.108939585616501589e+01
7.950000000000150280e+00 2.095002206898067243e+01
7.970000000000149853e+00 2.077666050088214789e+01
