# Redshift		Merger Rate Density [Gpc^-3yr^-1]
1.000000000031931770e-02 6.812538997082214109e+00
3.000000000031888964e-02 7.144838948210966656e+00
5.000000000031846331e-02 7.561155146854456888e+00
7.000000000031804392e-02 8.001845110251821325e+00
9.000000000031761760e-02 8.371253952852590885e+00
1.100000000003171913e-01 8.801223528858136191e+00
1.300000000003167511e-01 9.250332257051711693e+00
1.500000000003163247e-01 9.660013055285141093e+00
1.700000000003158984e-01 1.008764854461684379e+01
1.900000000003154721e-01 1.048116219956236250e+01
2.100000000003150458e-01 1.095565299783044289e+01
2.300000000003146194e-01 1.139098136903918856e+01
2.500000000003141931e-01 1.176851198558766498e+01
2.700000000003137668e-01 1.234544740916154204e+01
2.900000000003133405e-01 1.271776389842885990e+01
3.100000000003129141e-01 1.320349146770144166e+01
3.300000000003124878e-01 1.369156919257363114e+01
3.500000000003120615e-01 1.413192199019062834e+01
3.700000000003116352e-01 1.457154741485634375e+01
3.900000000003112088e-01 1.512756136690350850e+01
4.100000000003107825e-01 1.553490469697580600e+01
4.300000000003103562e-01 1.606965133848946792e+01
4.500000000003099299e-01 1.647555252722931840e+01
4.700000000003095035e-01 1.699648190094245948e+01
4.900000000003090772e-01 1.766237903442086576e+01
5.100000000003086509e-01 1.798063194460111447e+01
5.300000000003082246e-01 1.857912140722273264e+01
5.500000000003077982e-01 1.910632061706086304e+01
5.700000000003073719e-01 1.951928859068572919e+01
5.900000000003069456e-01 2.021079373310509908e+01
6.100000000003065193e-01 2.064252276852161572e+01
6.300000000003060929e-01 2.124294390347724715e+01
6.500000000003056666e-01 2.172414177104837663e+01
6.700000000003052403e-01 2.244587821352557810e+01
6.900000000003048140e-01 2.290542404701097112e+01
7.100000000003043876e-01 2.365328076303135774e+01
7.300000000003039613e-01 2.426617755201906235e+01
7.500000000003035350e-01 2.489903367887147567e+01
7.700000000003031086e-01 2.540986204856960029e+01
7.900000000003026823e-01 2.605759562348093894e+01
8.100000000003022560e-01 2.684178544023626500e+01
8.300000000003018297e-01 2.733117161193158040e+01
8.500000000003014033e-01 2.835353968401809510e+01
8.700000000003009770e-01 2.869773215679989420e+01
8.900000000003005507e-01 2.949969706048235807e+01
9.100000000003001244e-01 3.018574375727859405e+01
9.300000000002996980e-01 3.097214594661717868e+01
9.500000000002992717e-01 3.181942354887114277e+01
9.700000000002988454e-01 3.246884978508533237e+01
9.900000000002984191e-01 3.325117397786637241e+01
1.010000000000297993e+00 3.376536520589160517e+01
1.030000000000297566e+00 3.453759320326535232e+01
1.050000000000297140e+00 3.537484548938247997e+01
1.070000000000296714e+00 3.610408418781881323e+01
1.090000000000296287e+00 3.683378838239955400e+01
1.110000000000295861e+00 3.753022178786143570e+01
1.130000000000295435e+00 3.817719873335548897e+01
1.150000000000295008e+00 3.897504134175940749e+01
1.170000000000294582e+00 3.956368126898564697e+01
1.190000000000294156e+00 4.017981639999236165e+01
1.210000000000293729e+00 4.087477949200020788e+01
1.230000000000293303e+00 4.194572787427627247e+01
1.250000000000292877e+00 4.235936495758516429e+01
1.270000000000292451e+00 4.341639735611835249e+01
1.290000000000292024e+00 4.383186427235991545e+01
1.310000000000291598e+00 4.427865279181403224e+01
1.330000000000291172e+00 4.500422544471260977e+01
1.350000000000290745e+00 4.560264988850053669e+01
1.370000000000290319e+00 4.628846157985021392e+01
1.390000000000289893e+00 4.695403470587811512e+01
1.410000000000289466e+00 4.745912793316886535e+01
1.430000000000289040e+00 4.858900430424657912e+01
1.450000000000288614e+00 4.862852795545926199e+01
1.470000000000288187e+00 4.904901693456189093e+01
1.490000000000287761e+00 5.000849713397091278e+01
1.510000000000287335e+00 5.034783518467360608e+01
1.530000000000286908e+00 5.120239181738475764e+01
1.550000000000286482e+00 5.150192552502274168e+01
1.570000000000286056e+00 5.186432130958697684e+01
1.590000000000285629e+00 5.240410919270370016e+01
1.610000000000285203e+00 5.284096830195502292e+01
1.630000000000284777e+00 5.334813359315050718e+01
1.650000000000284350e+00 5.341278961035977346e+01
1.670000000000283924e+00 5.413414944750319080e+01
1.690000000000283498e+00 5.434170720139911737e+01
1.710000000000283071e+00 5.480543248712341153e+01
1.730000000000282645e+00 5.514084582943488755e+01
1.750000000000282219e+00 5.577164870867238022e+01
1.770000000000281792e+00 5.587968123078376692e+01
1.790000000000281366e+00 5.648633490138229263e+01
1.810000000000280940e+00 5.683896891021866793e+01
1.830000000000280513e+00 5.670978177555378608e+01
1.850000000000280087e+00 5.732828743256903437e+01
1.870000000000279661e+00 5.752172078945938694e+01
1.890000000000279234e+00 5.763391946702159885e+01
1.910000000000278808e+00 5.767321282198758325e+01
1.930000000000278382e+00 5.693127126682280448e+01
1.950000000000277955e+00 5.783402958815681671e+01
1.970000000000277529e+00 5.733253377741321799e+01
1.990000000000277103e+00 5.707963954927048178e+01
2.010000000000276899e+00 5.744893249209787456e+01
2.030000000000276472e+00 5.717419561994142185e+01
2.050000000000276046e+00 5.711090435831699352e+01
2.070000000000275620e+00 5.669179541776717457e+01
2.090000000000275193e+00 5.667503455181438454e+01
2.110000000000274767e+00 5.624864126521843133e+01
2.130000000000274341e+00 5.590410117389956213e+01
2.150000000000273914e+00 5.598146118157407614e+01
2.170000000000273488e+00 5.558708926095378189e+01
2.190000000000273062e+00 5.498407357449856647e+01
2.210000000000272635e+00 5.437956541370763119e+01
2.230000000000272209e+00 5.453981998708920997e+01
2.250000000000271783e+00 5.387655561018112849e+01
2.270000000000271356e+00 5.448496907436189218e+01
2.290000000000270930e+00 5.378735143554545317e+01
2.310000000000270504e+00 5.380798605569545856e+01
2.330000000000270077e+00 5.269191219899431644e+01
2.350000000000269651e+00 5.301879818786309784e+01
2.370000000000269225e+00 5.224762352715775648e+01
2.390000000000268798e+00 5.156729274717366707e+01
2.410000000000268372e+00 5.173082271909687080e+01
2.430000000000267946e+00 5.109970735669594433e+01
2.450000000000267519e+00 5.065658358917478665e+01
2.470000000000267093e+00 4.988858473717536413e+01
2.490000000000266667e+00 4.941482305448462142e+01
2.510000000000266240e+00 4.944291821990167080e+01
2.530000000000265814e+00 4.920476066050319019e+01
2.550000000000265388e+00 4.824409380370580180e+01
2.570000000000264961e+00 4.840566120928466631e+01
2.590000000000264535e+00 4.692063111131023589e+01
2.610000000000264109e+00 4.694705838898676831e+01
2.630000000000263682e+00 4.632352529191745560e+01
2.650000000000263256e+00 4.564208567874570832e+01
2.670000000000262830e+00 4.504233855612388737e+01
2.690000000000262403e+00 4.517164029908648359e+01
2.710000000000261977e+00 4.409687238195379422e+01
2.730000000000261551e+00 4.368448032026837069e+01
2.750000000000261124e+00 4.328561970738525133e+01
2.770000000000260698e+00 4.267922925503424381e+01
2.790000000000260272e+00 4.207469944894249636e+01
2.810000000000259845e+00 4.161901733704470274e+01
2.830000000000259419e+00 4.134801781766444861e+01
2.850000000000258993e+00 4.067690996196369468e+01
2.870000000000258567e+00 4.001867738217360682e+01
2.890000000000258140e+00 3.976574646573995864e+01
2.910000000000257714e+00 3.924650070726308115e+01
2.930000000000257288e+00 3.885991026814224369e+01
2.950000000000256861e+00 3.857389848651648379e+01
2.970000000000256435e+00 3.781090023081670637e+01
2.990000000000256009e+00 3.732008351748369535e+01
3.010000000000255582e+00 3.687447195415595758e+01
3.030000000000255156e+00 3.635301230630263802e+01
3.050000000000254730e+00 3.606092510812825935e+01
3.070000000000254303e+00 3.541684484200686001e+01
3.090000000000253877e+00 3.505358760874140245e+01
3.110000000000253451e+00 3.472259479241074587e+01
3.130000000000253024e+00 3.413936837512851241e+01
3.150000000000252598e+00 3.368036244709166738e+01
3.170000000000252172e+00 3.324901288411815159e+01
3.190000000000251745e+00 3.303370211513507826e+01
3.210000000000251319e+00 3.243315054526204477e+01
3.230000000000250893e+00 3.201903439366061122e+01
3.250000000000250466e+00 3.150358335894091510e+01
3.270000000000250040e+00 3.130265244160899840e+01
3.290000000000249614e+00 3.091201434001790815e+01
3.310000000000249187e+00 3.026518001766596910e+01
3.330000000000248761e+00 3.017951905821133352e+01
3.350000000000248335e+00 2.951712855206949015e+01
3.370000000000247908e+00 2.933015657862944536e+01
3.390000000000247482e+00 2.925172106751479717e+01
3.410000000000247056e+00 2.876887704229073606e+01
3.430000000000246629e+00 2.810103227224509936e+01
3.450000000000246203e+00 2.791011461980661679e+01
3.470000000000245777e+00 2.739315010709739084e+01
3.490000000000245350e+00 2.722180851454403339e+01
3.510000000000244924e+00 2.690851576975941128e+01
3.530000000000244498e+00 2.625575781833803291e+01
3.550000000000244071e+00 2.589699113004190423e+01
3.570000000000243645e+00 2.540394766324545728e+01
3.590000000000243219e+00 2.508651568689050748e+01
3.610000000000242792e+00 2.465208805713083962e+01
3.630000000000242366e+00 2.447134429879397644e+01
3.650000000000241940e+00 2.397768108338608783e+01
3.670000000000241513e+00 2.373637402666592067e+01
3.690000000000241087e+00 2.336594494386281085e+01
3.710000000000240661e+00 2.312612152965764878e+01
3.730000000000240234e+00 2.279665887421841219e+01
3.750000000000239808e+00 2.219867226566281460e+01
3.770000000000239382e+00 2.196218836713731903e+01
3.790000000000238956e+00 2.180227612451486863e+01
3.810000000000238529e+00 2.118911473300114068e+01
3.830000000000238103e+00 2.116892496113294442e+01
3.850000000000237677e+00 2.065722455286830339e+01
3.870000000000237250e+00 2.038983502383285895e+01
3.890000000000236824e+00 2.010048849722930697e+01
3.910000000000236398e+00 1.982369000305167361e+01
3.930000000000235971e+00 1.957554204919607699e+01
3.950000000000235545e+00 1.933213984797244223e+01
3.970000000000235119e+00 1.900999855574267627e+01
3.990000000000234692e+00 1.866896358622173580e+01
4.010000000000234266e+00 1.837854312853500005e+01
4.030000000000233840e+00 1.814293392551255124e+01
4.050000000000233413e+00 1.790284835821979215e+01
4.070000000000232987e+00 1.773872714729606059e+01
4.090000000000232561e+00 1.745872258471836957e+01
4.110000000000232134e+00 1.721674161092146704e+01
4.130000000000231708e+00 1.724183114537521178e+01
4.150000000000231282e+00 1.709186532444606499e+01
4.170000000000230855e+00 1.640977463347323351e+01
4.190000000000230429e+00 1.656969780859333596e+01
4.210000000000230003e+00 1.614674604879304809e+01
4.230000000000229576e+00 1.585621088797617873e+01
4.250000000000229150e+00 1.576744332460191522e+01
4.270000000000228724e+00 1.576211380924709360e+01
4.290000000000228297e+00 1.528918343947180603e+01
4.310000000000227871e+00 1.518140522955301819e+01
4.330000000000227445e+00 1.482936455768485651e+01
4.350000000000227018e+00 1.466324323700635368e+01
4.370000000000226592e+00 1.441823519945973864e+01
4.390000000000226166e+00 1.451228294705098243e+01
4.410000000000225739e+00 1.423904950841064121e+01
4.430000000000225313e+00 1.398461910999617963e+01
4.450000000000224887e+00 1.355653758327209779e+01
4.470000000000224460e+00 1.359695644973315787e+01
4.490000000000224034e+00 1.331915706446718417e+01
4.510000000000223608e+00 1.321973782530777797e+01
4.530000000000223181e+00 1.307568433125348939e+01
4.550000000000222755e+00 1.276519207334792227e+01
4.570000000000222329e+00 1.272626857663523836e+01
4.590000000000221902e+00 1.230489073406333844e+01
4.610000000000221476e+00 1.218525141919649712e+01
4.630000000000221050e+00 1.208245811301205741e+01
4.650000000000220624e+00 1.177382594283884920e+01
4.670000000000220197e+00 1.172324076951653105e+01
4.690000000000219771e+00 1.158552232060303844e+01
4.710000000000219345e+00 1.133795347189289338e+01
4.730000000000218918e+00 1.118161963032265405e+01
4.750000000000218492e+00 1.104449155904010027e+01
4.770000000000218066e+00 1.093879521900560192e+01
4.790000000000217639e+00 1.071405997086649897e+01
4.810000000000217213e+00 1.075348976745661389e+01
4.830000000000216787e+00 1.033084424912252963e+01
4.850000000000216360e+00 1.027046805322626888e+01
4.870000000000215934e+00 1.020825928278158301e+01
4.890000000000215508e+00 1.009793478350021800e+01
4.910000000000215081e+00 9.718196478498127178e+00
4.930000000000214655e+00 9.827165131281949684e+00
4.950000000000214229e+00 9.625523771962910757e+00
4.970000000000213802e+00 9.449473499832205192e+00
4.990000000000213376e+00 9.298788511357813036e+00
5.010000000000212950e+00 9.179572014969425098e+00
5.030000000000212523e+00 9.152223910372335069e+00
5.050000000000212097e+00 9.010699456302992516e+00
5.070000000000211671e+00 8.938323025440590541e+00
5.090000000000211244e+00 8.728243374506094554e+00
5.110000000000210818e+00 8.622810156986119523e+00
5.130000000000210392e+00 8.492838043155790828e+00
5.150000000000209965e+00 8.399686943224994096e+00
5.170000000000209539e+00 8.384536991514693227e+00
5.190000000000209113e+00 8.161181669650716231e+00
5.210000000000208686e+00 8.120432920612138616e+00
5.230000000000208260e+00 7.917353063649093414e+00
5.250000000000207834e+00 7.905226219103037799e+00
5.270000000000207407e+00 7.656633725040215666e+00
5.290000000000206981e+00 7.748954420825275413e+00
5.310000000000206555e+00 7.539524320081017805e+00
5.330000000000206128e+00 7.411146844116948351e+00
5.350000000000205702e+00 7.255562097428809309e+00
5.370000000000205276e+00 7.259532882111206398e+00
5.390000000000204849e+00 6.999965971010436938e+00
5.410000000000204423e+00 6.969969378666871052e+00
5.430000000000203997e+00 6.930836851422510492e+00
5.450000000000203570e+00 6.732758766484936430e+00
5.470000000000203144e+00 6.695862536197693338e+00
5.490000000000202718e+00 6.669668763074986906e+00
5.510000000000202292e+00 6.604171636972375303e+00
5.530000000000201865e+00 6.380573367410820040e+00
5.550000000000201439e+00 6.385781432194368890e+00
5.570000000000201013e+00 6.246629575824004910e+00
5.590000000000200586e+00 6.259008007153971320e+00
5.610000000000200160e+00 6.043842206970073683e+00
5.630000000000199734e+00 6.037915878260828428e+00
5.650000000000199307e+00 5.869159707390590341e+00
5.670000000000198881e+00 5.857339351395308036e+00
5.690000000000198455e+00 5.659253413213059858e+00
5.710000000000198028e+00 5.695021484408061774e+00
5.730000000000197602e+00 5.561617197319105088e+00
5.750000000000197176e+00 5.476959958315036125e+00
5.770000000000196749e+00 5.358305666955568647e+00
5.790000000000196323e+00 5.302625311821971721e+00
5.810000000000195897e+00 5.259220119625064527e+00
5.830000000000195470e+00 5.215266711158967006e+00
5.850000000000195044e+00 5.109120185558594152e+00
5.870000000000194618e+00 4.994238554397936625e+00
5.890000000000194191e+00 4.901703120716267570e+00
5.910000000000193765e+00 4.876251457708900006e+00
5.930000000000193339e+00 4.758264148293144480e+00
5.950000000000192912e+00 4.762953361594313151e+00
5.970000000000192486e+00 4.665441286795138254e+00
5.990000000000192060e+00 4.579752019261664309e+00
6.010000000000191633e+00 4.489798989454051537e+00
6.030000000000191207e+00 4.406147296947740877e+00
6.050000000000190781e+00 4.479667954131529406e+00
6.070000000000190354e+00 4.243733270702989557e+00
6.090000000000189928e+00 4.249473331095020789e+00
6.110000000000189502e+00 4.200240042656097295e+00
6.130000000000189075e+00 4.155286700162914570e+00
6.150000000000188649e+00 4.055611874585942189e+00
6.170000000000188223e+00 3.975427594219073768e+00
6.190000000000187796e+00 4.018022073330527633e+00
6.210000000000187370e+00 3.964257500845524529e+00
6.230000000000186944e+00 3.897900314875609062e+00
6.250000000000186517e+00 3.775573877160909753e+00
6.270000000000186091e+00 3.742605695239880959e+00
6.290000000000185665e+00 3.701543375054891616e+00
6.310000000000185238e+00 3.596637282287861392e+00
6.330000000000184812e+00 3.578746485459798787e+00
6.350000000000184386e+00 3.474020104315680868e+00
6.370000000000183960e+00 3.449997574970521175e+00
6.390000000000183533e+00 3.500565434956311339e+00
6.410000000000183107e+00 3.346442868184299702e+00
6.430000000000182681e+00 3.331919195370612652e+00
6.450000000000182254e+00 3.230148466079459713e+00
6.470000000000181828e+00 3.163243547497089470e+00
6.490000000000181402e+00 3.118093028114186094e+00
6.510000000000180975e+00 3.073052708035296288e+00
6.530000000000180549e+00 3.071627228572347157e+00
6.550000000000180123e+00 3.009967824912162193e+00
6.570000000000179696e+00 2.871967497210273557e+00
6.590000000000179270e+00 2.916530390890094360e+00
6.610000000000178844e+00 2.865252504561107916e+00
6.630000000000178417e+00 2.837504873573033048e+00
6.650000000000177991e+00 2.684456293229158241e+00
6.670000000000177565e+00 2.704833594535942520e+00
6.690000000000177138e+00 2.663782124584235689e+00
6.710000000000176712e+00 2.663012460641571266e+00
6.730000000000176286e+00 2.573214259956587924e+00
6.750000000000175859e+00 2.524394917145933448e+00
6.770000000000175433e+00 2.476755647703591467e+00
6.790000000000175007e+00 2.448456676713167024e+00
6.810000000000174580e+00 2.411254283512576535e+00
6.830000000000174154e+00 2.384599512196913906e+00
6.850000000000173728e+00 2.354299157596557723e+00
6.870000000000173301e+00 2.333340999128864279e+00
6.890000000000172875e+00 2.316902685833101661e+00
6.910000000000172449e+00 2.236562245310036889e+00
6.930000000000172022e+00 2.228453790064641282e+00
6.950000000000171596e+00 2.198724701723963282e+00
6.970000000000171170e+00 2.164920715886378577e+00
6.990000000000170743e+00 2.122186201119068638e+00
7.010000000000170317e+00 2.047207484860243731e+00
7.030000000000169891e+00 2.048419976060715353e+00
7.050000000000169464e+00 2.021744720948485341e+00
7.070000000000169038e+00 1.978884155194890360e+00
7.090000000000168612e+00 1.877440303708985070e+00
7.110000000000168185e+00 1.857485347630560168e+00
7.130000000000167759e+00 1.872793188281204335e+00
7.150000000000167333e+00 1.797574182890211203e+00
7.170000000000166906e+00 1.807817203894431568e+00
7.190000000000166480e+00 1.733216580326032430e+00
7.210000000000166054e+00 1.764178056816350093e+00
7.230000000000165628e+00 1.677647633419621753e+00
7.250000000000165201e+00 1.648308620050317197e+00
7.270000000000164775e+00 1.650968917788926404e+00
7.290000000000164349e+00 1.614574816413646863e+00
7.310000000000163922e+00 1.572856217542831336e+00
7.330000000000163496e+00 1.570129196464723043e+00
7.350000000000163070e+00 1.574751993515918436e+00
7.370000000000162643e+00 1.526875923619929409e+00
7.390000000000162217e+00 1.541229718563395190e+00
7.410000000000161791e+00 1.451633741272671196e+00
7.430000000000161364e+00 1.432546971168564331e+00
7.450000000000160938e+00 1.441860078702834391e+00
7.470000000000160512e+00 1.393243585281374708e+00
7.490000000000160085e+00 1.362916871371368632e+00
7.510000000000159659e+00 1.290863686749334160e+00
7.530000000000159233e+00 1.320363808579954501e+00
7.550000000000158806e+00 1.306664677437927136e+00
7.570000000000158380e+00 1.254270496188917727e+00
7.590000000000157954e+00 1.275157223608013091e+00
7.610000000000157527e+00 1.210109112678220633e+00
7.630000000000157101e+00 1.210673038231684595e+00
7.650000000000156675e+00 1.160055648965788055e+00
7.670000000000156248e+00 1.131741955052612214e+00
7.690000000000155822e+00 1.163096470641186375e+00
7.710000000000155396e+00 1.130836499916312299e+00
7.730000000000154969e+00 1.100050091342267722e+00
7.750000000000154543e+00 1.100290429726369368e+00
7.770000000000154117e+00 1.070040314872279019e+00
7.790000000000153690e+00 1.049389079971047689e+00
7.810000000000153264e+00 1.057788374387217623e+00
7.830000000000152838e+00 1.006475194597469480e+00
7.850000000000152411e+00 9.845296214583378891e-01
7.870000000000151985e+00 9.656449907767007401e-01
7.890000000000151559e+00 9.610109328613395396e-01
7.910000000000151132e+00 9.245857799161653068e-01
7.930000000000150706e+00 9.381080057265932526e-01
7.950000000000150280e+00 8.937459720341559555e-01
7.970000000000149853e+00 8.948668920081538358e-01
