# Redshift		Merger Rate Density [Gpc^-3yr^-1]
1.000000000031931770e-02 3.318411970268092404e+01
3.000000000031888964e-02 3.485493473476584825e+01
5.000000000031846331e-02 3.652528376594742099e+01
7.000000000031804392e-02 3.805020575390457793e+01
9.000000000031761760e-02 3.984459550521685145e+01
1.100000000003171913e-01 4.189048275148563505e+01
1.300000000003167511e-01 4.360096085518193121e+01
1.500000000003163247e-01 4.573246063667194505e+01
1.700000000003158984e-01 4.752071807976619766e+01
1.900000000003154721e-01 4.925048380177422302e+01
2.100000000003150458e-01 5.125684950496157199e+01
2.300000000003146194e-01 5.355623274599880546e+01
2.500000000003141931e-01 5.509447988507121607e+01
2.700000000003137668e-01 5.775713584527495925e+01
2.900000000003133405e-01 5.983184975863290589e+01
3.100000000003129141e-01 6.164314348681843114e+01
3.300000000003124878e-01 6.361656095161986002e+01
3.500000000003120615e-01 6.570437284107050857e+01
3.700000000003116352e-01 6.765225030850334065e+01
3.900000000003112088e-01 6.958223990358068534e+01
4.100000000003107825e-01 7.214053513413813334e+01
4.300000000003103562e-01 7.387616070750718222e+01
4.500000000003099299e-01 7.593777287493236372e+01
4.700000000003095035e-01 7.834179450596552385e+01
4.900000000003090772e-01 8.045515465587207871e+01
5.100000000003086509e-01 8.310464116156505554e+01
5.300000000003082246e-01 8.536075623099179666e+01
5.500000000003077982e-01 8.741502668488867300e+01
5.700000000003073719e-01 8.924237525004213012e+01
5.900000000003069456e-01 9.192981432052012281e+01
6.100000000003065193e-01 9.472087295843654431e+01
6.300000000003060929e-01 9.620249754707793954e+01
6.500000000003056666e-01 9.878472935720586179e+01
6.700000000003052403e-01 1.012548071909947396e+02
6.900000000003048140e-01 1.027505683762970676e+02
7.100000000003043876e-01 1.052509986084553049e+02
7.300000000003039613e-01 1.072001832491211104e+02
7.500000000003035350e-01 1.097971378679496723e+02
7.700000000003031086e-01 1.117338047186190408e+02
7.900000000003026823e-01 1.144009497702363944e+02
8.100000000003022560e-01 1.161819209873104768e+02
8.300000000003018297e-01 1.182559492892462174e+02
8.500000000003014033e-01 1.212347904273423040e+02
8.700000000003009770e-01 1.229110330257839649e+02
8.900000000003005507e-01 1.249662910437187975e+02
9.100000000003001244e-01 1.273180999904528505e+02
9.300000000002996980e-01 1.292404773732399974e+02
9.500000000002992717e-01 1.307563832691863865e+02
9.700000000002988454e-01 1.338727683357566889e+02
9.900000000002984191e-01 1.355741202172737019e+02
1.010000000000297993e+00 1.376740584777426193e+02
1.030000000000297566e+00 1.392752035219704112e+02
1.050000000000297140e+00 1.408589666651084258e+02
1.070000000000296714e+00 1.431432100718646439e+02
1.090000000000296287e+00 1.445815866312685500e+02
1.110000000000295861e+00 1.460282009431529104e+02
1.130000000000295435e+00 1.476567611914383065e+02
1.150000000000295008e+00 1.488041502701219372e+02
1.170000000000294582e+00 1.505849286771187394e+02
1.190000000000294156e+00 1.523060129406814838e+02
1.210000000000293729e+00 1.531088396535083405e+02
1.230000000000293303e+00 1.541595547618881312e+02
1.250000000000292877e+00 1.557459627955113035e+02
1.270000000000292451e+00 1.566628807331732958e+02
1.290000000000292024e+00 1.572851232587474613e+02
1.310000000000291598e+00 1.587642692166134566e+02
1.330000000000291172e+00 1.594079314441050030e+02
1.350000000000290745e+00 1.598446390223923004e+02
1.370000000000290319e+00 1.602100192484402612e+02
1.390000000000289893e+00 1.611425834716419274e+02
1.410000000000289466e+00 1.613271815726646992e+02
1.430000000000289040e+00 1.624903910873146060e+02
1.450000000000288614e+00 1.622459453619703993e+02
1.470000000000288187e+00 1.631132081798586739e+02
1.490000000000287761e+00 1.629344799699875637e+02
1.510000000000287335e+00 1.629943190289833126e+02
1.530000000000286908e+00 1.624685233761118468e+02
1.550000000000286482e+00 1.622835228349826480e+02
1.570000000000286056e+00 1.622688229109598410e+02
1.590000000000285629e+00 1.623230432851009368e+02
1.610000000000285203e+00 1.615505606067998201e+02
1.630000000000284777e+00 1.610745145889476930e+02
1.650000000000284350e+00 1.610929257776747363e+02
1.670000000000283924e+00 1.596397369522599945e+02
1.690000000000283498e+00 1.593941478608328737e+02
1.710000000000283071e+00 1.575243297065765944e+02
1.730000000000282645e+00 1.572488801498641067e+02
1.750000000000282219e+00 1.559578594455325060e+02
1.770000000000281792e+00 1.546818539429145005e+02
1.790000000000281366e+00 1.533357961733899231e+02
1.810000000000280940e+00 1.528181368092911896e+02
1.830000000000280513e+00 1.510586336935969314e+02
1.850000000000280087e+00 1.494018716526320532e+02
1.870000000000279661e+00 1.477687769623441056e+02
1.890000000000279234e+00 1.461763322594288752e+02
1.910000000000278808e+00 1.439745305486184463e+02
1.930000000000278382e+00 1.427602622608813761e+02
1.950000000000277955e+00 1.416913076343112436e+02
1.970000000000277529e+00 1.385163892031062574e+02
1.990000000000277103e+00 1.372913146340032711e+02
2.010000000000276899e+00 1.357124818313288586e+02
2.030000000000276472e+00 1.328449308498682342e+02
2.050000000000276046e+00 1.316950117778205254e+02
2.070000000000275620e+00 1.287179804703010859e+02
2.090000000000275193e+00 1.269700347596115932e+02
2.110000000000274767e+00 1.254150403677028294e+02
2.130000000000274341e+00 1.224936616889498708e+02
2.150000000000273914e+00 1.218398002702061262e+02
2.170000000000273488e+00 1.192083699875190916e+02
2.190000000000273062e+00 1.164867261808111607e+02
2.210000000000272635e+00 1.152619394154607164e+02
2.230000000000272209e+00 1.128186170806914532e+02
2.250000000000271783e+00 1.098461473854513883e+02
2.270000000000271356e+00 1.087974436520204904e+02
2.290000000000270930e+00 1.076302078846880903e+02
2.310000000000270504e+00 1.088815479503760315e+02
2.330000000000270077e+00 1.060190463824474847e+02
2.350000000000269651e+00 1.039037573494177735e+02
2.370000000000269225e+00 1.005198559820155424e+02
2.390000000000268798e+00 1.002573950345936993e+02
2.410000000000268372e+00 9.771453268215371679e+01
2.430000000000267946e+00 9.254906028042452704e+01
2.450000000000267519e+00 8.813782696827752261e+01
2.470000000000267093e+00 8.511793242192428011e+01
2.490000000000266667e+00 8.277425560030364693e+01
2.510000000000266240e+00 8.079055617780913678e+01
2.530000000000265814e+00 7.831759290493343428e+01
2.550000000000265388e+00 7.630345806923834573e+01
2.570000000000264961e+00 7.464923189130908554e+01
2.590000000000264535e+00 7.257912382290815856e+01
2.610000000000264109e+00 7.028642729454699634e+01
2.630000000000263682e+00 6.925007227594690562e+01
2.650000000000263256e+00 6.816513481619875847e+01
2.670000000000262830e+00 6.564059695954790641e+01
2.690000000000262403e+00 6.378796722032023325e+01
2.710000000000261977e+00 6.218496927063657154e+01
2.730000000000261551e+00 6.063556963375548037e+01
2.750000000000261124e+00 5.912616390365477059e+01
2.770000000000260698e+00 5.774289382781970659e+01
2.790000000000260272e+00 5.612209009560216799e+01
2.810000000000259845e+00 5.461192613911912019e+01
2.830000000000259419e+00 5.378749971147203723e+01
2.850000000000258993e+00 5.242171250314330422e+01
2.870000000000258567e+00 5.132402994596898793e+01
2.890000000000258140e+00 5.013854078763532840e+01
2.910000000000257714e+00 4.859641156821438557e+01
2.930000000000257288e+00 4.733332699456210690e+01
2.950000000000256861e+00 4.576424577051214726e+01
2.970000000000256435e+00 4.481225305630135125e+01
2.990000000000256009e+00 4.352311293545742643e+01
3.010000000000255582e+00 4.291079320827007137e+01
3.030000000000255156e+00 4.195115864779907611e+01
3.050000000000254730e+00 4.083922820453421565e+01
3.070000000000254303e+00 4.011097944249227254e+01
3.090000000000253877e+00 3.896942825976829994e+01
3.110000000000253451e+00 3.814277226975008972e+01
3.130000000000253024e+00 3.760843196175509462e+01
3.150000000000252598e+00 3.641608926469895380e+01
3.170000000000252172e+00 3.623710875056430325e+01
3.190000000000251745e+00 3.496782478084166002e+01
3.210000000000251319e+00 3.430082255949259462e+01
3.230000000000250893e+00 3.338484347093589832e+01
3.250000000000250466e+00 3.285178291060259426e+01
3.270000000000250040e+00 3.237683947513846761e+01
3.290000000000249614e+00 3.151183017020910171e+01
3.310000000000249187e+00 3.074647176846916352e+01
3.330000000000248761e+00 3.043515367751099632e+01
3.350000000000248335e+00 2.960830155380248385e+01
3.370000000000247908e+00 2.954209546565197186e+01
3.390000000000247482e+00 2.872594231395636299e+01
3.410000000000247056e+00 2.836653125051637403e+01
3.430000000000246629e+00 2.765351637051012901e+01
3.450000000000246203e+00 2.731427927830480229e+01
3.470000000000245777e+00 2.700054926807588274e+01
3.490000000000245350e+00 2.652061738438429828e+01
3.510000000000244924e+00 2.609693345250829921e+01
3.530000000000244498e+00 2.554975862384464591e+01
3.550000000000244071e+00 2.496346248469171414e+01
3.570000000000243645e+00 2.474396822764236958e+01
3.590000000000243219e+00 2.461637784045488786e+01
3.610000000000242792e+00 2.450454917717434711e+01
3.630000000000242366e+00 2.362592092964944612e+01
3.650000000000241940e+00 2.370572987286653088e+01
3.670000000000241513e+00 2.312020686053948282e+01
3.690000000000241087e+00 2.269191914565676527e+01
3.710000000000240661e+00 2.263619927435076207e+01
3.730000000000240234e+00 2.198310294554319100e+01
3.750000000000239808e+00 2.157251588548140120e+01
3.770000000000239382e+00 2.147237839529870485e+01
3.790000000000238956e+00 2.109478708635874611e+01
3.810000000000238529e+00 2.086848585309561344e+01
3.830000000000238103e+00 2.059656774292173864e+01
3.850000000000237677e+00 2.050148969725697867e+01
3.870000000000237250e+00 1.983909624302065922e+01
3.890000000000236824e+00 1.997368954484442582e+01
3.910000000000236398e+00 1.961015160822229930e+01
3.930000000000235971e+00 1.928526825964206992e+01
3.950000000000235545e+00 1.925196814383976474e+01
3.970000000000235119e+00 1.902998158877091939e+01
3.990000000000234692e+00 1.857365694531452149e+01
4.010000000000234266e+00 1.877100045040048570e+01
4.030000000000233840e+00 1.828407694358676494e+01
4.050000000000233413e+00 1.829369343010295523e+01
4.070000000000232987e+00 1.802468832812238730e+01
4.090000000000232561e+00 1.786407958076662439e+01
4.110000000000232134e+00 1.769086604058583490e+01
4.130000000000231708e+00 1.768170674399444309e+01
4.150000000000231282e+00 1.722374568064393685e+01
4.170000000000230855e+00 1.714478974269081490e+01
4.190000000000230429e+00 1.690923270187390415e+01
4.210000000000230003e+00 1.663931174398123147e+01
4.230000000000229576e+00 1.671445502614119860e+01
4.250000000000229150e+00 1.630877194003157271e+01
4.270000000000228724e+00 1.617013792169595732e+01
4.290000000000228297e+00 1.617033772694414040e+01
4.310000000000227871e+00 1.583052641303616070e+01
4.330000000000227445e+00 1.578360640685920835e+01
4.350000000000227018e+00 1.556713002157211356e+01
4.370000000000226592e+00 1.566256786322266237e+01
4.390000000000226166e+00 1.555436704708462159e+01
4.410000000000225739e+00 1.529367984446873763e+01
4.430000000000225313e+00 1.494186074075596871e+01
4.450000000000224887e+00 1.476857507499981459e+01
4.470000000000224460e+00 1.479295250891926727e+01
4.490000000000224034e+00 1.487750401527278932e+01
4.510000000000223608e+00 1.449678076000697757e+01
4.530000000000223181e+00 1.470751992867282887e+01
4.550000000000222755e+00 1.421046133834020075e+01
4.570000000000222329e+00 1.424977366618895402e+01
4.590000000000221902e+00 1.397955350199498703e+01
4.610000000000221476e+00 1.393854186759566183e+01
4.630000000000221050e+00 1.388203348982825069e+01
4.650000000000220624e+00 1.369810962232795859e+01
4.670000000000220197e+00 1.351885967615700856e+01
4.690000000000219771e+00 1.352653642243455323e+01
4.710000000000219345e+00 1.308825929257366028e+01
4.730000000000218918e+00 1.335293408870193943e+01
4.750000000000218492e+00 1.316373240590025340e+01
4.770000000000218066e+00 1.296882427160558571e+01
4.790000000000217639e+00 1.263344254297482472e+01
4.810000000000217213e+00 1.280284649649480144e+01
4.830000000000216787e+00 1.277053936538450607e+01
4.850000000000216360e+00 1.256570399917722902e+01
4.870000000000215934e+00 1.240188026581899727e+01
4.890000000000215508e+00 1.228575217321347246e+01
4.910000000000215081e+00 1.207264724793525446e+01
4.930000000000214655e+00 1.231548707067411996e+01
4.950000000000214229e+00 1.185925087488454288e+01
4.970000000000213802e+00 1.180148009671514231e+01
4.990000000000213376e+00 1.199351189409331475e+01
5.010000000000212950e+00 1.150494348799945321e+01
5.030000000000212523e+00 1.164911733469910260e+01
5.050000000000212097e+00 1.142271449127027161e+01
5.070000000000211671e+00 1.135292056593819865e+01
5.090000000000211244e+00 1.120350949331522195e+01
5.110000000000210818e+00 1.128493614328057504e+01
5.130000000000210392e+00 1.123447922286028167e+01
5.150000000000209965e+00 1.106978254723970778e+01
5.170000000000209539e+00 1.089800653008942000e+01
5.190000000000209113e+00 1.087548729759045862e+01
5.210000000000208686e+00 1.073077367420688688e+01
5.230000000000208260e+00 1.053311867510874933e+01
5.250000000000207834e+00 1.088285998140465338e+01
5.270000000000207407e+00 1.041390331902285205e+01
5.290000000000206981e+00 1.042597185254376946e+01
5.310000000000206555e+00 1.027972076531820100e+01
5.330000000000206128e+00 1.040338693559355043e+01
5.350000000000205702e+00 1.019900482563105371e+01
5.370000000000205276e+00 1.001072493735911095e+01
5.390000000000204849e+00 9.960942992505565030e+00
5.410000000000204423e+00 9.938691143625209889e+00
5.430000000000203997e+00 9.919913559321582142e+00
5.450000000000203570e+00 9.595973846855647693e+00
5.470000000000203144e+00 9.702252882233270981e+00
5.490000000000202718e+00 9.605185854228162512e+00
5.510000000000202292e+00 9.363913629006871631e+00
5.530000000000201865e+00 9.452481455577144587e+00
5.550000000000201439e+00 9.270573846790503225e+00
5.570000000000201013e+00 9.323427029055221027e+00
5.590000000000200586e+00 9.127508993264935810e+00
5.610000000000200160e+00 9.182047436955077302e+00
5.630000000000199734e+00 8.928644685438220208e+00
5.650000000000199307e+00 8.866941934985097973e+00
5.670000000000198881e+00 8.708412531259980938e+00
5.690000000000198455e+00 8.716879936598704859e+00
5.710000000000198028e+00 8.685607887863264764e+00
5.730000000000197602e+00 8.668978306885675167e+00
5.750000000000197176e+00 8.594009902894029551e+00
5.770000000000196749e+00 8.471787435152894119e+00
5.790000000000196323e+00 8.362502708312316457e+00
5.810000000000195897e+00 8.310372423198277403e+00
5.830000000000195470e+00 8.239394135345955661e+00
5.850000000000195044e+00 8.466185380154094275e+00
5.870000000000194618e+00 8.087556064102052744e+00
5.890000000000194191e+00 7.954878763344126469e+00
5.910000000000193765e+00 8.147388189515185175e+00
5.930000000000193339e+00 7.920443368668815154e+00
5.950000000000192912e+00 8.004184241641430830e+00
5.970000000000192486e+00 8.121800817224551494e+00
5.990000000000192060e+00 7.679694668197790897e+00
6.010000000000191633e+00 7.579045479532756424e+00
6.030000000000191207e+00 7.548005208431455948e+00
6.050000000000190781e+00 7.636772258567531502e+00
6.070000000000190354e+00 7.393651418907993822e+00
6.090000000000189928e+00 7.600239659178765983e+00
6.110000000000189502e+00 7.364765369866868028e+00
6.130000000000189075e+00 7.123838639883975254e+00
6.150000000000188649e+00 7.267457977294328408e+00
6.170000000000188223e+00 7.072946943139812426e+00
6.190000000000187796e+00 7.173111201121227687e+00
6.210000000000187370e+00 7.127853090543265324e+00
6.230000000000186944e+00 6.958014205169837929e+00
6.250000000000186517e+00 6.907518102286983819e+00
6.270000000000186091e+00 6.875458157239757284e+00
6.290000000000185665e+00 6.893012829462214164e+00
6.310000000000185238e+00 6.770932864765038417e+00
6.330000000000184812e+00 6.780770044127175211e+00
6.350000000000184386e+00 6.670080035079144487e+00
6.370000000000183960e+00 6.655815110362346410e+00
6.390000000000183533e+00 6.485576802270771601e+00
6.410000000000183107e+00 6.538198999371355846e+00
6.430000000000182681e+00 6.563522691420119237e+00
6.450000000000182254e+00 6.435943811750670207e+00
6.470000000000181828e+00 6.511297411392141576e+00
6.490000000000181402e+00 6.525642462443334679e+00
6.510000000000180975e+00 6.359367622911796580e+00
6.530000000000180549e+00 6.344429861944170135e+00
6.550000000000180123e+00 6.265025386585541867e+00
6.570000000000179696e+00 6.270129071501646223e+00
6.590000000000179270e+00 6.061373186059884510e+00
6.610000000000178844e+00 6.049860447161766075e+00
6.630000000000178417e+00 6.242327810277397582e+00
6.650000000000177991e+00 5.941660317418133275e+00
6.670000000000177565e+00 5.886315104821856714e+00
6.690000000000177138e+00 6.087732008680729834e+00
6.710000000000176712e+00 6.055549343553643382e+00
6.730000000000176286e+00 5.926283685695699965e+00
6.750000000000175859e+00 5.879106759357924261e+00
6.770000000000175433e+00 5.753647069205654496e+00
6.790000000000175007e+00 5.843102869388426157e+00
6.810000000000174580e+00 5.820082430244261751e+00
6.830000000000174154e+00 5.728322602686244380e+00
6.850000000000173728e+00 5.791974762938559174e+00
6.870000000000173301e+00 5.672505610319412028e+00
6.890000000000172875e+00 5.729249893024950246e+00
6.910000000000172449e+00 5.570592517889736861e+00
6.930000000000172022e+00 5.583377661792836122e+00
6.950000000000171596e+00 5.579674727020339731e+00
6.970000000000171170e+00 5.637910924906915255e+00
6.990000000000170743e+00 5.513626202422456046e+00
7.010000000000170317e+00 5.485118688148133081e+00
7.030000000000169891e+00 5.392555689462629864e+00
7.050000000000169464e+00 5.361650251596735473e+00
7.070000000000169038e+00 5.407539992578375809e+00
7.090000000000168612e+00 5.288142417529188677e+00
7.110000000000168185e+00 5.388287527297520363e+00
7.130000000000167759e+00 5.193663652712320555e+00
7.150000000000167333e+00 5.265990127828026779e+00
7.170000000000166906e+00 5.180018657294440665e+00
7.190000000000166480e+00 5.135258499753147632e+00
7.210000000000166054e+00 5.126754592476557626e+00
7.230000000000165628e+00 5.038840950499513305e+00
7.250000000000165201e+00 5.086428953989137192e+00
7.270000000000164775e+00 5.078126147874561624e+00
7.290000000000164349e+00 5.083786033709252195e+00
7.310000000000163922e+00 5.032911191140975404e+00
7.330000000000163496e+00 5.025887228976491095e+00
7.350000000000163070e+00 4.920080087663187385e+00
7.370000000000162643e+00 5.082730656198646280e+00
7.390000000000162217e+00 4.907360780388181354e+00
7.410000000000161791e+00 4.968221081086912072e+00
7.430000000000161364e+00 4.987822625403972587e+00
7.450000000000160938e+00 4.891266621880833831e+00
7.470000000000160512e+00 5.073066512251041438e+00
7.490000000000160085e+00 4.787063819683020860e+00
7.510000000000159659e+00 4.830431619075199023e+00
7.530000000000159233e+00 4.796731826037863300e+00
7.550000000000158806e+00 4.776479657448220451e+00
7.570000000000158380e+00 4.766516459307449161e+00
7.590000000000157954e+00 4.752304074052223548e+00
7.610000000000157527e+00 4.734302186353897213e+00
7.630000000000157101e+00 4.681193269652613509e+00
7.650000000000156675e+00 4.729413123214643910e+00
7.670000000000156248e+00 4.740610584004937955e+00
7.690000000000155822e+00 4.792298579785545520e+00
7.710000000000155396e+00 4.682467405704877628e+00
7.730000000000154969e+00 4.719441551405918034e+00
7.750000000000154543e+00 4.706114137994404700e+00
7.770000000000154117e+00 4.760622593093377652e+00
7.790000000000153690e+00 4.764159157377206633e+00
7.810000000000153264e+00 4.734601266095828542e+00
7.830000000000152838e+00 4.767649230894721590e+00
7.850000000000152411e+00 4.694009575035432036e+00
7.870000000000151985e+00 4.697638420000280313e+00
7.890000000000151559e+00 4.722422370641119471e+00
7.910000000000151132e+00 4.708852312275492835e+00
7.930000000000150706e+00 4.730002434017006152e+00
7.950000000000150280e+00 4.689702095935697201e+00
7.970000000000149853e+00 4.802378901366612496e+00
