# Redshift		Merger Rate Density [Gpc^-3yr^-1]
1.000000000031931770e-02 2.194832220258823696e+01
3.000000000031888964e-02 2.309665887608734991e+01
5.000000000031846331e-02 2.402954593724995647e+01
7.000000000031804392e-02 2.512956593279709949e+01
9.000000000031761760e-02 2.620794952538461331e+01
1.100000000003171913e-01 2.726251430427233657e+01
1.300000000003167511e-01 2.846561461855298347e+01
1.500000000003163247e-01 2.959092018154127857e+01
1.700000000003158984e-01 3.054282010787151691e+01
1.900000000003154721e-01 3.265406113858608705e+01
2.100000000003150458e-01 3.323100421546904926e+01
2.300000000003146194e-01 3.479831769764101068e+01
2.500000000003141931e-01 3.593155806814475994e+01
2.700000000003137668e-01 3.710345760025356299e+01
2.900000000003133405e-01 3.869866452385667799e+01
3.100000000003129141e-01 3.985251501765242210e+01
3.300000000003124878e-01 4.151503395238258776e+01
3.500000000003120615e-01 4.269647588227599755e+01
3.700000000003116352e-01 4.446662747843889463e+01
3.900000000003112088e-01 4.589342719490803546e+01
4.100000000003107825e-01 4.728037337896907388e+01
4.300000000003103562e-01 4.897543306442270250e+01
4.500000000003099299e-01 5.025842538839796703e+01
4.700000000003095035e-01 5.196289475376473632e+01
4.900000000003090772e-01 5.345085627147010854e+01
5.100000000003086509e-01 5.524683153493927534e+01
5.300000000003082246e-01 5.597953271588600899e+01
5.500000000003077982e-01 5.811658936756506222e+01
5.700000000003073719e-01 5.954538244970201077e+01
5.900000000003069456e-01 6.124538071741439893e+01
6.100000000003065193e-01 6.276849627063474202e+01
6.300000000003060929e-01 6.403077535677331866e+01
6.500000000003056666e-01 6.617471234037509475e+01
6.700000000003052403e-01 6.746589408247812969e+01
6.900000000003048140e-01 6.963932710869215725e+01
7.100000000003043876e-01 7.095992493389702815e+01
7.300000000003039613e-01 7.298166745798370414e+01
7.500000000003035350e-01 7.470683719823277613e+01
7.700000000003031086e-01 7.664370778657330163e+01
7.900000000003026823e-01 7.746329631964673013e+01
8.100000000003022560e-01 7.985882683209069910e+01
8.300000000003018297e-01 8.170021633564864771e+01
8.500000000003014033e-01 8.375471664425573692e+01
8.700000000003009770e-01 8.545471171674365962e+01
8.900000000003005507e-01 8.704442841314670432e+01
9.100000000003001244e-01 8.827708898235736967e+01
9.300000000002996980e-01 9.072069410256318633e+01
9.500000000002992717e-01 9.215197415284629301e+01
9.700000000002988454e-01 9.494539954227558098e+01
9.900000000002984191e-01 9.538223582953357038e+01
1.010000000000297993e+00 9.819293715782806942e+01
1.030000000000297566e+00 9.979966069636206782e+01
1.050000000000297140e+00 1.021815228276730494e+02
1.070000000000296714e+00 1.029252849902793088e+02
1.090000000000296287e+00 1.053596620627523919e+02
1.110000000000295861e+00 1.069968558507127057e+02
1.130000000000295435e+00 1.082179728151152034e+02
1.150000000000295008e+00 1.107277156904431621e+02
1.170000000000294582e+00 1.124335668208658774e+02
1.190000000000294156e+00 1.129115864107480576e+02
1.210000000000293729e+00 1.164147852341066169e+02
1.230000000000293303e+00 1.168363605866475012e+02
1.250000000000292877e+00 1.184814060552300816e+02
1.270000000000292451e+00 1.205206189882812851e+02
1.290000000000292024e+00 1.211192995995636323e+02
1.310000000000291598e+00 1.226355641156770275e+02
1.330000000000291172e+00 1.248367924622418457e+02
1.350000000000290745e+00 1.268982064617022303e+02
1.370000000000290319e+00 1.279242096816631289e+02
1.390000000000289893e+00 1.300232652677403848e+02
1.410000000000289466e+00 1.293232631098870797e+02
1.430000000000289040e+00 1.320466042274850054e+02
1.450000000000288614e+00 1.325192924498254854e+02
1.470000000000288187e+00 1.338854889228866512e+02
1.490000000000287761e+00 1.358691009662322529e+02
1.510000000000287335e+00 1.363118013117476153e+02
1.530000000000286908e+00 1.377716554875284771e+02
1.550000000000286482e+00 1.377668224433311366e+02
1.570000000000286056e+00 1.402230509124103719e+02
1.590000000000285629e+00 1.404565998275088248e+02
1.610000000000285203e+00 1.405046231459810997e+02
1.630000000000284777e+00 1.411095673683131224e+02
1.650000000000284350e+00 1.422925202065744941e+02
1.670000000000283924e+00 1.425362962326767899e+02
1.690000000000283498e+00 1.433864573982861828e+02
1.710000000000283071e+00 1.436634989676656176e+02
1.730000000000282645e+00 1.448271675753886996e+02
1.750000000000282219e+00 1.443538094002290677e+02
1.770000000000281792e+00 1.445346348226374857e+02
1.790000000000281366e+00 1.459034965703125692e+02
1.810000000000280940e+00 1.446800794307316380e+02
1.830000000000280513e+00 1.468299762969066080e+02
1.850000000000280087e+00 1.463952395334376035e+02
1.870000000000279661e+00 1.459056728256368274e+02
1.890000000000279234e+00 1.461187652878588210e+02
1.910000000000278808e+00 1.477843277928213865e+02
1.930000000000278382e+00 1.453501218585933259e+02
1.950000000000277955e+00 1.461428585173882766e+02
1.970000000000277529e+00 1.440457977018903932e+02
1.990000000000277103e+00 1.443170320017059396e+02
2.010000000000276899e+00 1.442350710263453379e+02
2.030000000000276472e+00 1.432200713577567512e+02
2.050000000000276046e+00 1.448147209205762067e+02
2.070000000000275620e+00 1.421121317020459287e+02
2.090000000000275193e+00 1.419515373377089986e+02
2.110000000000274767e+00 1.412053248326357391e+02
2.130000000000274341e+00 1.391712786561560620e+02
2.150000000000273914e+00 1.391211949687474316e+02
2.170000000000273488e+00 1.375732185426398360e+02
2.190000000000273062e+00 1.373165293438865433e+02
2.210000000000272635e+00 1.362735327397874130e+02
2.230000000000272209e+00 1.363919302867748797e+02
2.250000000000271783e+00 1.344105311057845142e+02
2.270000000000271356e+00 1.332064983260952715e+02
2.290000000000270930e+00 1.320165191325166631e+02
2.310000000000270504e+00 1.305205697443637121e+02
2.330000000000270077e+00 1.294372777255303220e+02
2.350000000000269651e+00 1.289818851010047069e+02
2.370000000000269225e+00 1.273108712620442020e+02
2.390000000000268798e+00 1.263601417756185299e+02
2.410000000000268372e+00 1.242305210390644987e+02
2.430000000000267946e+00 1.241160100795398904e+02
2.450000000000267519e+00 1.232056381216704892e+02
2.470000000000267093e+00 1.205562207216887600e+02
2.490000000000266667e+00 1.203387131211762693e+02
2.510000000000266240e+00 1.196327085708867628e+02
2.530000000000265814e+00 1.174578753867485688e+02
2.550000000000265388e+00 1.170351396763010428e+02
2.570000000000264961e+00 1.149076301875789028e+02
2.590000000000264535e+00 1.140739043660795886e+02
2.610000000000264109e+00 1.131356455631732558e+02
2.630000000000263682e+00 1.110928898195408152e+02
2.650000000000263256e+00 1.102888807287891950e+02
2.670000000000262830e+00 1.091134623711678842e+02
2.690000000000262403e+00 1.072675632345298169e+02
2.710000000000261977e+00 1.067688579907562172e+02
2.730000000000261551e+00 1.054633549891506306e+02
2.750000000000261124e+00 1.042757303792571548e+02
2.770000000000260698e+00 1.023561146998204379e+02
2.790000000000260272e+00 1.012265505951914832e+02
2.810000000000259845e+00 9.991854096539172758e+01
2.830000000000259419e+00 9.849327649584944311e+01
2.850000000000258993e+00 9.763746061042235169e+01
2.870000000000258567e+00 9.710040996348345743e+01
2.890000000000258140e+00 9.506906800364465937e+01
2.910000000000257714e+00 9.373761454625808653e+01
2.930000000000257288e+00 9.205701965223673255e+01
2.950000000000256861e+00 9.170523939260128543e+01
2.970000000000256435e+00 9.046142430829712566e+01
2.990000000000256009e+00 8.914984879547151309e+01
3.010000000000255582e+00 8.828761565867731065e+01
3.030000000000255156e+00 8.709804678250563370e+01
3.050000000000254730e+00 8.552481454595977084e+01
3.070000000000254303e+00 8.447242561971054897e+01
3.090000000000253877e+00 8.373955453528924409e+01
3.110000000000253451e+00 8.196732545636298539e+01
3.130000000000253024e+00 8.132118364074493400e+01
3.150000000000252598e+00 8.065591554369719063e+01
3.170000000000252172e+00 7.852937006051220692e+01
3.190000000000251745e+00 7.800158264254015705e+01
3.210000000000251319e+00 7.722253001386648918e+01
3.230000000000250893e+00 7.665726188178173572e+01
3.250000000000250466e+00 7.525161592566931290e+01
3.270000000000250040e+00 7.404017334176182885e+01
3.290000000000249614e+00 7.315733334346734296e+01
3.310000000000249187e+00 7.223385634947133838e+01
3.330000000000248761e+00 7.158844101706910124e+01
3.350000000000248335e+00 6.984890032547892247e+01
3.370000000000247908e+00 6.878060465274882063e+01
3.390000000000247482e+00 6.850144616824026400e+01
3.410000000000247056e+00 6.725702218192246562e+01
3.430000000000246629e+00 6.690146189323036197e+01
3.450000000000246203e+00 6.622671856650543987e+01
3.470000000000245777e+00 6.452897671695751569e+01
3.490000000000245350e+00 6.413417272287804849e+01
3.510000000000244924e+00 6.290397050994905470e+01
3.530000000000244498e+00 6.246408408382060173e+01
3.550000000000244071e+00 6.189374518915002454e+01
3.570000000000243645e+00 6.102957550317142932e+01
3.590000000000243219e+00 6.012785520927073435e+01
3.610000000000242792e+00 5.936396420528018325e+01
3.630000000000242366e+00 5.799127334032046832e+01
3.650000000000241940e+00 5.741695447384235962e+01
3.670000000000241513e+00 5.611744336163818048e+01
3.690000000000241087e+00 5.525929824371557686e+01
3.710000000000240661e+00 5.516508696145681512e+01
3.730000000000240234e+00 5.412818436624088037e+01
3.750000000000239808e+00 5.375341136609279857e+01
3.770000000000239382e+00 5.306483808094250776e+01
3.790000000000238956e+00 5.204537317366139604e+01
3.810000000000238529e+00 5.139159444342703864e+01
3.830000000000238103e+00 5.105117759633598951e+01
3.850000000000237677e+00 5.040155729329512724e+01
3.870000000000237250e+00 4.963091035851254418e+01
3.890000000000236824e+00 4.860772622911009222e+01
3.910000000000236398e+00 4.815611685142519605e+01
3.930000000000235971e+00 4.790374275031598472e+01
3.950000000000235545e+00 4.703417602745870596e+01
3.970000000000235119e+00 4.609983197442188896e+01
3.990000000000234692e+00 4.591938495280882648e+01
4.010000000000234266e+00 4.553815661610455123e+01
4.030000000000233840e+00 4.484304287295673674e+01
4.050000000000233413e+00 4.421295001099334598e+01
4.070000000000232987e+00 4.348262035302596473e+01
4.090000000000232561e+00 4.314048094789964694e+01
4.110000000000232134e+00 4.246123410816269939e+01
4.130000000000231708e+00 4.165186898111643643e+01
4.150000000000231282e+00 4.173526637256630778e+01
4.170000000000230855e+00 4.110026359840362176e+01
4.190000000000230429e+00 4.044799182696575457e+01
4.210000000000230003e+00 4.021592159685822310e+01
4.230000000000229576e+00 3.964305251590010215e+01
4.250000000000229150e+00 3.915004966263153108e+01
4.270000000000228724e+00 3.862920067770564714e+01
4.290000000000228297e+00 3.800897784716866568e+01
4.310000000000227871e+00 3.796472101489652573e+01
4.330000000000227445e+00 3.721384911664983264e+01
4.350000000000227018e+00 3.695030355280572820e+01
4.370000000000226592e+00 3.677806414307352867e+01
4.390000000000226166e+00 3.597857436535922915e+01
4.410000000000225739e+00 3.561691035266514405e+01
4.430000000000225313e+00 3.515738852130628800e+01
4.450000000000224887e+00 3.512497565104379049e+01
4.470000000000224460e+00 3.475877888023614304e+01
4.490000000000224034e+00 3.409949789465328251e+01
4.510000000000223608e+00 3.394498593024403732e+01
4.530000000000223181e+00 3.327357092684312789e+01
4.550000000000222755e+00 3.277006259806144328e+01
4.570000000000222329e+00 3.253259139157341195e+01
4.590000000000221902e+00 3.255429843923668187e+01
4.610000000000221476e+00 3.209966937531127229e+01
4.630000000000221050e+00 3.206799170768136520e+01
4.650000000000220624e+00 3.098050318911901257e+01
4.670000000000220197e+00 3.097227502659284326e+01
4.690000000000219771e+00 3.064056681614940914e+01
4.710000000000219345e+00 3.026597258532122581e+01
4.730000000000218918e+00 2.998005823992171770e+01
4.750000000000218492e+00 2.988728496805195078e+01
4.770000000000218066e+00 2.901603835127038522e+01
4.790000000000217639e+00 2.910410268561376768e+01
4.810000000000217213e+00 2.877242785318489382e+01
4.830000000000216787e+00 2.847911193515295736e+01
4.850000000000216360e+00 2.824389791878336098e+01
4.870000000000215934e+00 2.769653356480777617e+01
4.890000000000215508e+00 2.770404972656593756e+01
4.910000000000215081e+00 2.742890069325416391e+01
4.930000000000214655e+00 2.694850660003146103e+01
4.950000000000214229e+00 2.693813285593432028e+01
4.970000000000213802e+00 2.671354612457221833e+01
4.990000000000213376e+00 2.631050861676789054e+01
5.010000000000212950e+00 2.603154296249028476e+01
5.030000000000212523e+00 2.582796962927126927e+01
5.050000000000212097e+00 2.551859579271912537e+01
5.070000000000211671e+00 2.547266285845247324e+01
5.090000000000211244e+00 2.500797570756907362e+01
5.110000000000210818e+00 2.473400034300370720e+01
5.130000000000210392e+00 2.492782559533490883e+01
5.150000000000209965e+00 2.449508200523602852e+01
5.170000000000209539e+00 2.417897921164723840e+01
5.190000000000209113e+00 2.411573730197345000e+01
5.210000000000208686e+00 2.383677501421817624e+01
5.230000000000208260e+00 2.349848942914236005e+01
5.250000000000207834e+00 2.372691307551407647e+01
5.270000000000207407e+00 2.302538995801080901e+01
5.290000000000206981e+00 2.297154669906239377e+01
5.310000000000206555e+00 2.270188386043239959e+01
5.330000000000206128e+00 2.241021746870892883e+01
5.350000000000205702e+00 2.250818949272887792e+01
5.370000000000205276e+00 2.218369677919512384e+01
5.390000000000204849e+00 2.191274204371687517e+01
5.410000000000204423e+00 2.195676980159436198e+01
5.430000000000203997e+00 2.142031274971336074e+01
5.450000000000203570e+00 2.173490020671448519e+01
5.470000000000203144e+00 2.121294346477897008e+01
5.490000000000202718e+00 2.107297835088315097e+01
5.510000000000202292e+00 2.088863030731563342e+01
5.530000000000201865e+00 2.067168835830553775e+01
5.550000000000201439e+00 2.067676244376384176e+01
5.570000000000201013e+00 2.041012849569132825e+01
5.590000000000200586e+00 2.015061020740938602e+01
5.610000000000200160e+00 2.007213121646130105e+01
5.630000000000199734e+00 2.002465694172114041e+01
5.650000000000199307e+00 1.965489066867479906e+01
5.670000000000198881e+00 1.983436381640216339e+01
5.690000000000198455e+00 1.946620381337027439e+01
5.710000000000198028e+00 1.942002738474509727e+01
5.730000000000197602e+00 1.912579526924260520e+01
5.750000000000197176e+00 1.919268284366254917e+01
5.770000000000196749e+00 1.870327252884621672e+01
5.790000000000196323e+00 1.872866923465759825e+01
5.810000000000195897e+00 1.884109623222997598e+01
5.830000000000195470e+00 1.848829607146306486e+01
5.850000000000195044e+00 1.820525556599663730e+01
5.870000000000194618e+00 1.829044965969902137e+01
5.890000000000194191e+00 1.816190391742049570e+01
5.910000000000193765e+00 1.811492140283366581e+01
5.930000000000193339e+00 1.784540631230921193e+01
5.950000000000192912e+00 1.778699409325196257e+01
5.970000000000192486e+00 1.747624911040944795e+01
5.990000000000192060e+00 1.741113255072494681e+01
6.010000000000191633e+00 1.740233543467341804e+01
6.030000000000191207e+00 1.722502199894404740e+01
6.050000000000190781e+00 1.722825604254660803e+01
6.070000000000190354e+00 1.712081685389422603e+01
6.090000000000189928e+00 1.702485946396831906e+01
6.110000000000189502e+00 1.664153700565010752e+01
6.130000000000189075e+00 1.691156149930985819e+01
6.150000000000188649e+00 1.648837495505225803e+01
6.170000000000188223e+00 1.648148734415872951e+01
6.190000000000187796e+00 1.649321471023079155e+01
6.210000000000187370e+00 1.641889255080985777e+01
6.230000000000186944e+00 1.607546725478124117e+01
6.250000000000186517e+00 1.598975802682397074e+01
6.270000000000186091e+00 1.601645065182355410e+01
6.290000000000185665e+00 1.577211168574168454e+01
6.310000000000185238e+00 1.560328840915145676e+01
6.330000000000184812e+00 1.576378589785988282e+01
6.350000000000184386e+00 1.550639149655597748e+01
6.370000000000183960e+00 1.549420550310520284e+01
6.390000000000183533e+00 1.545487564099011379e+01
6.410000000000183107e+00 1.517677076924038637e+01
6.430000000000182681e+00 1.520924971829189332e+01
6.450000000000182254e+00 1.498918761391690602e+01
6.470000000000181828e+00 1.505645940295857699e+01
6.490000000000181402e+00 1.485393748421197024e+01
6.510000000000180975e+00 1.474317592507856745e+01
6.530000000000180549e+00 1.479390667935146375e+01
6.550000000000180123e+00 1.459719638326233770e+01
6.570000000000179696e+00 1.453188429637510914e+01
6.590000000000179270e+00 1.446696294082000911e+01
6.610000000000178844e+00 1.447809292892100075e+01
6.630000000000178417e+00 1.431128646868356746e+01
6.650000000000177991e+00 1.437003961242526451e+01
6.670000000000177565e+00 1.417525106020718262e+01
6.690000000000177138e+00 1.394814417890143510e+01
6.710000000000176712e+00 1.414913048742635837e+01
6.730000000000176286e+00 1.385461541732327184e+01
6.750000000000175859e+00 1.388110973856948682e+01
6.770000000000175433e+00 1.386396826415916372e+01
6.790000000000175007e+00 1.362763734070190580e+01
6.810000000000174580e+00 1.364333934987251240e+01
6.830000000000174154e+00 1.360171214793743566e+01
6.850000000000173728e+00 1.341177564513424691e+01
6.870000000000173301e+00 1.331427597676066732e+01
6.890000000000172875e+00 1.326917497081776531e+01
6.910000000000172449e+00 1.333176941488619072e+01
6.930000000000172022e+00 1.321677553345117317e+01
6.950000000000171596e+00 1.301383964153369099e+01
6.970000000000171170e+00 1.309346575527155032e+01
6.990000000000170743e+00 1.304899667166010779e+01
7.010000000000170317e+00 1.295185409978079960e+01
7.030000000000169891e+00 1.287231160942516439e+01
7.050000000000169464e+00 1.282227385082000914e+01
7.070000000000169038e+00 1.255156296157709583e+01
7.090000000000168612e+00 1.256906602711818266e+01
7.110000000000168185e+00 1.262089273435212355e+01
7.130000000000167759e+00 1.243243559943649856e+01
7.150000000000167333e+00 1.247038648932256244e+01
7.170000000000166906e+00 1.246632798617636340e+01
7.190000000000166480e+00 1.234726703717301177e+01
7.210000000000166054e+00 1.226631454948827127e+01
7.230000000000165628e+00 1.223644074368496426e+01
7.250000000000165201e+00 1.212559243460143676e+01
7.270000000000164775e+00 1.209609000794059241e+01
7.290000000000164349e+00 1.188077225870895504e+01
7.310000000000163922e+00 1.196128919112599220e+01
7.330000000000163496e+00 1.191120885443508826e+01
7.350000000000163070e+00 1.188359140530945446e+01
7.370000000000162643e+00 1.186284736213352531e+01
7.390000000000162217e+00 1.169949127517682896e+01
7.410000000000161791e+00 1.166186255386142179e+01
7.430000000000161364e+00 1.146706740437781136e+01
7.450000000000160938e+00 1.148730554830660289e+01
7.470000000000160512e+00 1.140991592501930363e+01
7.490000000000160085e+00 1.144606085360307546e+01
7.510000000000159659e+00 1.133786081644129240e+01
7.530000000000159233e+00 1.126932423899420854e+01
7.550000000000158806e+00 1.117979998107912998e+01
7.570000000000158380e+00 1.113781540854449403e+01
7.590000000000157954e+00 1.114530254575143786e+01
7.610000000000157527e+00 1.105385726531704194e+01
7.630000000000157101e+00 1.103105714266059323e+01
7.650000000000156675e+00 1.103885810003450096e+01
7.670000000000156248e+00 1.085251057289585752e+01
7.690000000000155822e+00 1.082547379712101510e+01
7.710000000000155396e+00 1.075408967895688406e+01
7.730000000000154969e+00 1.077924958937908784e+01
7.750000000000154543e+00 1.066859993339245527e+01
7.770000000000154117e+00 1.054564803617499535e+01
7.790000000000153690e+00 1.063596929677660619e+01
7.810000000000153264e+00 1.059206188108166913e+01
7.830000000000152838e+00 1.045900536827907246e+01
7.850000000000152411e+00 1.036464638767641055e+01
7.870000000000151985e+00 1.024864545172703423e+01
7.890000000000151559e+00 1.030120082258912539e+01
7.910000000000151132e+00 1.018332870808653645e+01
7.930000000000150706e+00 1.010797127262086015e+01
7.950000000000150280e+00 1.007438949698094000e+01
7.970000000000149853e+00 1.010055675505246420e+01
