# Redshift		Merger Rate Density [Gpc^-3yr^-1]
1.000000000031931770e-02 5.713115364159625642e+01
3.000000000031888964e-02 6.028417461384290732e+01
5.000000000031846331e-02 6.310232577289189493e+01
7.000000000031804392e-02 6.664660812219977970e+01
9.000000000031761760e-02 6.987651382944967793e+01
1.100000000003171913e-01 7.304368958654509925e+01
1.300000000003167511e-01 7.656459411993608910e+01
1.500000000003163247e-01 8.004352509475285160e+01
1.700000000003158984e-01 8.371504468965950707e+01
1.900000000003154721e-01 8.703933743250649968e+01
2.100000000003150458e-01 9.082607641142790555e+01
2.300000000003146194e-01 9.487202381115706373e+01
2.500000000003141931e-01 9.857762836861107303e+01
2.700000000003137668e-01 1.023161348904949079e+02
2.900000000003133405e-01 1.062694099195244064e+02
3.100000000003129141e-01 1.100659921418003933e+02
3.300000000003124878e-01 1.144771391489789067e+02
3.500000000003120615e-01 1.189446990858920827e+02
3.700000000003116352e-01 1.229558888616573142e+02
3.900000000003112088e-01 1.269307475638808995e+02
4.100000000003107825e-01 1.312879352481380977e+02
4.300000000003103562e-01 1.357891997600780485e+02
4.500000000003099299e-01 1.402905008054546556e+02
4.700000000003095035e-01 1.448703097756751959e+02
4.900000000003090772e-01 1.495179248421882221e+02
5.100000000003086509e-01 1.539865709590102654e+02
5.300000000003082246e-01 1.588077359823843437e+02
5.500000000003077982e-01 1.641146508184300501e+02
5.700000000003073719e-01 1.686477300476887251e+02
5.900000000003069456e-01 1.737112509271935039e+02
6.100000000003065193e-01 1.788306052065487393e+02
6.300000000003060929e-01 1.836424906916359419e+02
6.500000000003056666e-01 1.887311752321597282e+02
6.700000000003052403e-01 1.934361318722720000e+02
6.900000000003048140e-01 1.988353872759845444e+02
7.100000000003043876e-01 2.039412081800687986e+02
7.300000000003039613e-01 2.091685747734904339e+02
7.500000000003035350e-01 2.141600163379918627e+02
7.700000000003031086e-01 2.204850552719540246e+02
7.900000000003026823e-01 2.258320723298304529e+02
8.100000000003022560e-01 2.315247115488704708e+02
8.300000000003018297e-01 2.363520904097260598e+02
8.500000000003014033e-01 2.417539598624287009e+02
8.700000000003009770e-01 2.476465386927250449e+02
8.900000000003005507e-01 2.530618954521415276e+02
9.100000000003001244e-01 2.583050992483334767e+02
9.300000000002996980e-01 2.641989144973827592e+02
9.500000000002992717e-01 2.697340555276624627e+02
9.700000000002988454e-01 2.760014988405205258e+02
9.900000000002984191e-01 2.811431665120722414e+02
1.010000000000297993e+00 2.860614304320363885e+02
1.030000000000297566e+00 2.918014901681713127e+02
1.050000000000297140e+00 2.990408050117316634e+02
1.070000000000296714e+00 3.036756913283094264e+02
1.090000000000296287e+00 3.086176977801423504e+02
1.110000000000295861e+00 3.151163153699815780e+02
1.130000000000295435e+00 3.202585608681288249e+02
1.150000000000295008e+00 3.251859835049430103e+02
1.170000000000294582e+00 3.300071080668475361e+02
1.190000000000294156e+00 3.358592554826782361e+02
1.210000000000293729e+00 3.404702056028968400e+02
1.230000000000293303e+00 3.448011179797429122e+02
1.250000000000292877e+00 3.504638299383779554e+02
1.270000000000292451e+00 3.550268857794847008e+02
1.290000000000292024e+00 3.604938799066465549e+02
1.310000000000291598e+00 3.636672232499939241e+02
1.330000000000291172e+00 3.703749575417468236e+02
1.350000000000290745e+00 3.727419700805495495e+02
1.370000000000290319e+00 3.782478759068778231e+02
1.390000000000289893e+00 3.819170010926818009e+02
1.410000000000289466e+00 3.859248766186510124e+02
1.430000000000289040e+00 3.893053394597735064e+02
1.450000000000288614e+00 3.929391874621155125e+02
1.470000000000288187e+00 3.966257151688391787e+02
1.490000000000287761e+00 3.996578087575347240e+02
1.510000000000287335e+00 4.028711911449321974e+02
1.530000000000286908e+00 4.071724917520893996e+02
1.550000000000286482e+00 4.111008650307368271e+02
1.570000000000286056e+00 4.124187511720727457e+02
1.590000000000285629e+00 4.145834947765744118e+02
1.610000000000285203e+00 4.169529108507006754e+02
1.630000000000284777e+00 4.202568833432846418e+02
1.650000000000284350e+00 4.224633603403328266e+02
1.670000000000283924e+00 4.252647791604203462e+02
1.690000000000283498e+00 4.254618735993080350e+02
1.710000000000283071e+00 4.278187256426070348e+02
1.730000000000282645e+00 4.284035417410674427e+02
1.750000000000282219e+00 4.297135596559770647e+02
1.770000000000281792e+00 4.306666899230792183e+02
1.790000000000281366e+00 4.296567995683487879e+02
1.810000000000280940e+00 4.311338314029664502e+02
1.830000000000280513e+00 4.299990935015436548e+02
1.850000000000280087e+00 4.297921155687477608e+02
1.870000000000279661e+00 4.309326730415501743e+02
1.890000000000279234e+00 4.311338123386631764e+02
1.910000000000278808e+00 4.299914399868070518e+02
1.930000000000278382e+00 4.283293608132768213e+02
1.950000000000277955e+00 4.308668899199234374e+02
1.970000000000277529e+00 4.300542807245067820e+02
1.990000000000277103e+00 4.287386108733168726e+02
2.010000000000276899e+00 4.278074325503615682e+02
2.030000000000276472e+00 4.267073075249853105e+02
2.050000000000276046e+00 4.240309672842273585e+02
2.070000000000275620e+00 4.220865355561469983e+02
2.090000000000275193e+00 4.184628963077566368e+02
2.110000000000274767e+00 4.176459618834071534e+02
2.130000000000274341e+00 4.170200012455729848e+02
2.150000000000273914e+00 4.145755772499618388e+02
2.170000000000273488e+00 4.149326964459802980e+02
2.190000000000273062e+00 4.099487857609763068e+02
2.210000000000272635e+00 4.072171191219472348e+02
2.230000000000272209e+00 4.024034395975522784e+02
2.250000000000271783e+00 3.971155854032782031e+02
2.270000000000271356e+00 3.948706010703257903e+02
2.290000000000270930e+00 3.889256752553232559e+02
2.310000000000270504e+00 3.841867090310741446e+02
2.330000000000270077e+00 3.799420085954344586e+02
2.350000000000269651e+00 3.734178612127025190e+02
2.370000000000269225e+00 3.704422815275433436e+02
2.390000000000268798e+00 3.624795349372164992e+02
2.410000000000268372e+00 3.602779188127948373e+02
2.430000000000267946e+00 3.532209699994056677e+02
2.450000000000267519e+00 3.471711604903564421e+02
2.470000000000267093e+00 3.430140945390140246e+02
2.490000000000266667e+00 3.382973447395569337e+02
2.510000000000266240e+00 3.337617515286734715e+02
2.530000000000265814e+00 3.299660617424657971e+02
2.550000000000265388e+00 3.249484139178634905e+02
2.570000000000264961e+00 3.197737742029028141e+02
2.590000000000264535e+00 3.153383606715682390e+02
2.610000000000264109e+00 3.110198248613680789e+02
2.630000000000263682e+00 3.069567173702128002e+02
2.650000000000263256e+00 3.029820653335817724e+02
2.670000000000262830e+00 2.978666545946661017e+02
2.690000000000262403e+00 2.940514195585702737e+02
2.710000000000261977e+00 2.909755453278210098e+02
2.730000000000261551e+00 2.856421475667977461e+02
2.750000000000261124e+00 2.816207122521586825e+02
2.770000000000260698e+00 2.780695497306647894e+02
2.790000000000260272e+00 2.740678649447734188e+02
2.810000000000259845e+00 2.694005511638321195e+02
2.830000000000259419e+00 2.651402349080943850e+02
2.850000000000258993e+00 2.616935083420189585e+02
2.870000000000258567e+00 2.561427504651173308e+02
2.890000000000258140e+00 2.528888176907159107e+02
2.910000000000257714e+00 2.482011053242864023e+02
2.930000000000257288e+00 2.448976462815693367e+02
2.950000000000256861e+00 2.403326058564269658e+02
2.970000000000256435e+00 2.380044530150986475e+02
2.990000000000256009e+00 2.336381133330002342e+02
3.010000000000255582e+00 2.310806646234943855e+02
3.030000000000255156e+00 2.266883706953371984e+02
3.050000000000254730e+00 2.226737158817740294e+02
3.070000000000254303e+00 2.191151873900202816e+02
3.090000000000253877e+00 2.161219049913401591e+02
3.110000000000253451e+00 2.115321548866445482e+02
3.130000000000253024e+00 2.082731595439297791e+02
3.150000000000252598e+00 2.053633713315517184e+02
3.170000000000252172e+00 2.026197501951487254e+02
3.190000000000251745e+00 1.991045106195180097e+02
3.210000000000251319e+00 1.958409970656028065e+02
3.230000000000250893e+00 1.923397257103360118e+02
3.250000000000250466e+00 1.906719455857992784e+02
3.270000000000250040e+00 1.859850297028907846e+02
3.290000000000249614e+00 1.827915894028658101e+02
3.310000000000249187e+00 1.796658861630124022e+02
3.330000000000248761e+00 1.776459020050033075e+02
3.350000000000248335e+00 1.745035031328018533e+02
3.370000000000247908e+00 1.716941914592468095e+02
3.390000000000247482e+00 1.686373970228928272e+02
3.410000000000247056e+00 1.659935739398387966e+02
3.430000000000246629e+00 1.626040867199660340e+02
3.450000000000246203e+00 1.597226516276212749e+02
3.470000000000245777e+00 1.577141386081860901e+02
3.490000000000245350e+00 1.555073960218771560e+02
3.510000000000244924e+00 1.526562846265438509e+02
3.530000000000244498e+00 1.501230940230994690e+02
3.550000000000244071e+00 1.479111044480910095e+02
3.570000000000243645e+00 1.447691380606152620e+02
3.590000000000243219e+00 1.433998931594003352e+02
3.610000000000242792e+00 1.414651728508756889e+02
3.630000000000242366e+00 1.399145245032278524e+02
3.650000000000241940e+00 1.365557527801344122e+02
3.670000000000241513e+00 1.351009617771226488e+02
3.690000000000241087e+00 1.320304877387459044e+02
3.710000000000240661e+00 1.305469931791510874e+02
3.730000000000240234e+00 1.275016085305486229e+02
3.750000000000239808e+00 1.266970359280552572e+02
3.770000000000239382e+00 1.243473550255570927e+02
3.790000000000238956e+00 1.213735380517715328e+02
3.810000000000238529e+00 1.195554259481323527e+02
3.830000000000238103e+00 1.177435460275540606e+02
3.850000000000237677e+00 1.168232160751542210e+02
3.870000000000237250e+00 1.141998910282467108e+02
3.890000000000236824e+00 1.123704571545279691e+02
3.910000000000236398e+00 1.115333616479718586e+02
3.930000000000235971e+00 1.095580020411057092e+02
3.950000000000235545e+00 1.088100565418150580e+02
3.970000000000235119e+00 1.051124368617735456e+02
3.990000000000234692e+00 1.034897619135732469e+02
4.010000000000234266e+00 1.015078022692658664e+02
4.030000000000233840e+00 1.007852928978628313e+02
4.050000000000233413e+00 9.806380694830329503e+01
4.070000000000232987e+00 9.652910018356854494e+01
4.090000000000232561e+00 9.564609269103875988e+01
4.110000000000232134e+00 9.426002055800208268e+01
4.130000000000231708e+00 9.279574808025601840e+01
4.150000000000231282e+00 9.096118416547732011e+01
4.170000000000230855e+00 8.938774988956531331e+01
4.190000000000230429e+00 8.852643535719165868e+01
4.210000000000230003e+00 8.764433875942772545e+01
4.230000000000229576e+00 8.568834286791972943e+01
4.250000000000229150e+00 8.540057980030661611e+01
4.270000000000228724e+00 8.276502070782159137e+01
4.290000000000228297e+00 8.206205787034656396e+01
4.310000000000227871e+00 8.046857963863386942e+01
4.330000000000227445e+00 7.988278964167078300e+01
4.350000000000227018e+00 7.855556614081041289e+01
4.370000000000226592e+00 7.775949587737611068e+01
4.390000000000226166e+00 7.674918978892182508e+01
4.410000000000225739e+00 7.537784298321770393e+01
4.430000000000225313e+00 7.460054660257391390e+01
4.450000000000224887e+00 7.329908148115535482e+01
4.470000000000224460e+00 7.245066634980355502e+01
4.490000000000224034e+00 7.128516740972550281e+01
4.510000000000223608e+00 7.062346190852619543e+01
4.530000000000223181e+00 6.970606793340959939e+01
4.550000000000222755e+00 6.839314216375166211e+01
4.570000000000222329e+00 6.762705893117038158e+01
4.590000000000221902e+00 6.658267787006037963e+01
4.610000000000221476e+00 6.638331933289418885e+01
4.630000000000221050e+00 6.561895988308621952e+01
4.650000000000220624e+00 6.490839547490459438e+01
4.670000000000220197e+00 6.420577168849969496e+01
4.690000000000219771e+00 6.347968480889670673e+01
4.710000000000219345e+00 6.171764189955901259e+01
4.730000000000218918e+00 6.151986167661512894e+01
4.750000000000218492e+00 6.104398062600557040e+01
4.770000000000218066e+00 6.064865102702532340e+01
4.790000000000217639e+00 5.943804378834045821e+01
4.810000000000217213e+00 5.823639529742946763e+01
4.830000000000216787e+00 5.774916288977166801e+01
4.850000000000216360e+00 5.723795798702552418e+01
4.870000000000215934e+00 5.605691499917146814e+01
4.890000000000215508e+00 5.561849757536158734e+01
4.910000000000215081e+00 5.467618397020157772e+01
4.930000000000214655e+00 5.434494150966696679e+01
4.950000000000214229e+00 5.364376315464181744e+01
4.970000000000213802e+00 5.342366822038428609e+01
4.990000000000213376e+00 5.156489500150970429e+01
5.010000000000212950e+00 5.187428223775568625e+01
5.030000000000212523e+00 5.100004670079893998e+01
5.050000000000212097e+00 5.017204256666819617e+01
5.070000000000211671e+00 4.966981792604523349e+01
5.090000000000211244e+00 4.892952999785307355e+01
5.110000000000210818e+00 4.841381733353431827e+01
5.130000000000210392e+00 4.756776435569328498e+01
5.150000000000209965e+00 4.704225259576125495e+01
5.170000000000209539e+00 4.599028599956774599e+01
5.190000000000209113e+00 4.593136954170457642e+01
5.210000000000208686e+00 4.552936461242465072e+01
5.230000000000208260e+00 4.479573267744108733e+01
5.250000000000207834e+00 4.409758273895263869e+01
5.270000000000207407e+00 4.371544999896825345e+01
5.290000000000206981e+00 4.319698743110105710e+01
5.310000000000206555e+00 4.206877024220852235e+01
5.330000000000206128e+00 4.217841410746358832e+01
5.350000000000205702e+00 4.125517480621127220e+01
5.370000000000205276e+00 4.116398292460240071e+01
5.390000000000204849e+00 4.050188920263643411e+01
5.410000000000204423e+00 4.005043754591055460e+01
5.430000000000203997e+00 3.926781139764215567e+01
5.450000000000203570e+00 3.948087046161120384e+01
5.470000000000203144e+00 3.890153958410275692e+01
5.490000000000202718e+00 3.830517489551583310e+01
5.510000000000202292e+00 3.800862523997578535e+01
5.530000000000201865e+00 3.733188191695088420e+01
5.550000000000201439e+00 3.693065919243590400e+01
5.570000000000201013e+00 3.630617222112950770e+01
5.590000000000200586e+00 3.606956808609615450e+01
5.610000000000200160e+00 3.550957537017837495e+01
5.630000000000199734e+00 3.535667025487560267e+01
5.650000000000199307e+00 3.453044257243264070e+01
5.670000000000198881e+00 3.411399517284982608e+01
5.690000000000198455e+00 3.385761575440960058e+01
5.710000000000198028e+00 3.347294243111718259e+01
5.730000000000197602e+00 3.306946856911042687e+01
5.750000000000197176e+00 3.319332355160295833e+01
5.770000000000196749e+00 3.227798964951266214e+01
5.790000000000196323e+00 3.208566610557569732e+01
5.810000000000195897e+00 3.138171195346686559e+01
5.830000000000195470e+00 3.085358869368800327e+01
5.850000000000195044e+00 3.057697013526728469e+01
5.870000000000194618e+00 3.032823898010867936e+01
5.890000000000194191e+00 3.009728465017828825e+01
5.910000000000193765e+00 2.974174185679067861e+01
5.930000000000193339e+00 2.911430927052856177e+01
5.950000000000192912e+00 2.883728297782805683e+01
5.970000000000192486e+00 2.841453559198301093e+01
5.990000000000192060e+00 2.805202690649677066e+01
6.010000000000191633e+00 2.757308849255024441e+01
6.030000000000191207e+00 2.752813923567860854e+01
6.050000000000190781e+00 2.699780620607375070e+01
6.070000000000190354e+00 2.690462407001053080e+01
6.090000000000189928e+00 2.647406892540017154e+01
6.110000000000189502e+00 2.634446127595481002e+01
6.130000000000189075e+00 2.616520223958031721e+01
6.150000000000188649e+00 2.613190026867887639e+01
6.170000000000188223e+00 2.541715397756683359e+01
6.190000000000187796e+00 2.516104277173548098e+01
6.210000000000187370e+00 2.523151860407948277e+01
6.230000000000186944e+00 2.459563250589485861e+01
6.250000000000186517e+00 2.431324154891981948e+01
6.270000000000186091e+00 2.401490100473093747e+01
6.290000000000185665e+00 2.355771274396105497e+01
6.310000000000185238e+00 2.354457317721496779e+01
6.330000000000184812e+00 2.312541045601891909e+01
6.350000000000184386e+00 2.271057060548779205e+01
6.370000000000183960e+00 2.248529366324861556e+01
6.390000000000183533e+00 2.242077083247328417e+01
6.410000000000183107e+00 2.196100981109105632e+01
6.430000000000182681e+00 2.193411560134221716e+01
6.450000000000182254e+00 2.179341161228248680e+01
6.470000000000181828e+00 2.140132377415420351e+01
6.490000000000181402e+00 2.127746060825083063e+01
6.510000000000180975e+00 2.123502378920290923e+01
6.530000000000180549e+00 2.051869923986383526e+01
6.550000000000180123e+00 2.041649247025452496e+01
6.570000000000179696e+00 2.025257440724069724e+01
6.590000000000179270e+00 2.005505852430650293e+01
6.610000000000178844e+00 2.002012987678934053e+01
6.630000000000178417e+00 1.975927429083864340e+01
6.650000000000177991e+00 1.944129922898522622e+01
6.670000000000177565e+00 1.933787221763629205e+01
6.690000000000177138e+00 1.919356639142440812e+01
6.710000000000176712e+00 1.866366754597106592e+01
6.730000000000176286e+00 1.875650240380761602e+01
6.750000000000175859e+00 1.833286333627016162e+01
6.770000000000175433e+00 1.823684012300408597e+01
6.790000000000175007e+00 1.777574204143233061e+01
6.810000000000174580e+00 1.797706865346848204e+01
6.830000000000174154e+00 1.768849679230878991e+01
6.850000000000173728e+00 1.748473521771207828e+01
6.870000000000173301e+00 1.740983090578887627e+01
6.890000000000172875e+00 1.697346248980157313e+01
6.910000000000172449e+00 1.676103582954404558e+01
6.930000000000172022e+00 1.683855273088579452e+01
6.950000000000171596e+00 1.680305884920536030e+01
6.970000000000171170e+00 1.630385621056784728e+01
6.990000000000170743e+00 1.625603033455445967e+01
7.010000000000170317e+00 1.603393979294812510e+01
7.030000000000169891e+00 1.620843632694043990e+01
7.050000000000169464e+00 1.599131922846146558e+01
7.070000000000169038e+00 1.579692367278907916e+01
7.090000000000168612e+00 1.541582319635791798e+01
7.110000000000168185e+00 1.523191458835924550e+01
7.130000000000167759e+00 1.520857647337837015e+01
7.150000000000167333e+00 1.507539583454511245e+01
7.170000000000166906e+00 1.481075177694655487e+01
7.190000000000166480e+00 1.459430146925852512e+01
7.210000000000166054e+00 1.451953461636167297e+01
7.230000000000165628e+00 1.456745774902037915e+01
7.250000000000165201e+00 1.441111825836693150e+01
7.270000000000164775e+00 1.429515270204901256e+01
7.290000000000164349e+00 1.398166086177358203e+01
7.310000000000163922e+00 1.391707491081900017e+01
7.330000000000163496e+00 1.372319811874151263e+01
7.350000000000163070e+00 1.351567055070291801e+01
7.370000000000162643e+00 1.345822706615451736e+01
7.390000000000162217e+00 1.315056770533116470e+01
7.410000000000161791e+00 1.344788366542306690e+01
7.430000000000161364e+00 1.316045999593092297e+01
7.450000000000160938e+00 1.310183986421026425e+01
7.470000000000160512e+00 1.295792580583148457e+01
7.490000000000160085e+00 1.281402103990755137e+01
7.510000000000159659e+00 1.255873501056335861e+01
7.530000000000159233e+00 1.252266403505726977e+01
7.550000000000158806e+00 1.248758675331458079e+01
7.570000000000158380e+00 1.203271570670970547e+01
7.590000000000157954e+00 1.231589371255868492e+01
7.610000000000157527e+00 1.208385320294487997e+01
7.630000000000157101e+00 1.185157029438832765e+01
7.650000000000156675e+00 1.169611373135323795e+01
7.670000000000156248e+00 1.157442429003524786e+01
7.690000000000155822e+00 1.154323536021917107e+01
7.710000000000155396e+00 1.135215189642535982e+01
7.730000000000154969e+00 1.141107237396493446e+01
7.750000000000154543e+00 1.141016088259995520e+01
7.770000000000154117e+00 1.101672384964160578e+01
7.790000000000153690e+00 1.089719283056648536e+01
7.810000000000153264e+00 1.082662778760695410e+01
7.830000000000152838e+00 1.083215634419966911e+01
7.850000000000152411e+00 1.062105906847773440e+01
7.870000000000151985e+00 1.040952338358663276e+01
7.890000000000151559e+00 1.051242136514089687e+01
7.910000000000151132e+00 1.030064704993118241e+01
7.930000000000150706e+00 1.023468465813720840e+01
7.950000000000150280e+00 1.007124606390138766e+01
7.970000000000149853e+00 1.001124332060351030e+01
