# Redshift		Merger Rate Density [Gpc^-3yr^-1]
1.000000000031931770e-02 1.059545173489804597e+02
3.000000000031888964e-02 1.111770322521821299e+02
5.000000000031846331e-02 1.166799645457234647e+02
7.000000000031804392e-02 1.221498332080964815e+02
9.000000000031761760e-02 1.278800866011123674e+02
1.100000000003171913e-01 1.335236089926637248e+02
1.300000000003167511e-01 1.395510591194879737e+02
1.500000000003163247e-01 1.457687329532747071e+02
1.700000000003158984e-01 1.519015926556043894e+02
1.900000000003154721e-01 1.583899859733394919e+02
2.100000000003150458e-01 1.647971485701881420e+02
2.300000000003146194e-01 1.717582806987162201e+02
2.500000000003141931e-01 1.784410808538043796e+02
2.700000000003137668e-01 1.854666275575673069e+02
2.900000000003133405e-01 1.926348145672390046e+02
3.100000000003129141e-01 2.000588151336192482e+02
3.300000000003124878e-01 2.074674284535783499e+02
3.500000000003120615e-01 2.152768436370221252e+02
3.700000000003116352e-01 2.233265330607607098e+02
3.900000000003112088e-01 2.311336005737944106e+02
4.100000000003107825e-01 2.395383298559858929e+02
4.300000000003103562e-01 2.481628404709260849e+02
4.500000000003099299e-01 2.563352177544157371e+02
4.700000000003095035e-01 2.653169143733584860e+02
4.900000000003090772e-01 2.744552066476496179e+02
5.100000000003086509e-01 2.833341101000879689e+02
5.300000000003082246e-01 2.928259780060646449e+02
5.500000000003077982e-01 3.019696266214781986e+02
5.700000000003073719e-01 3.113548786188875965e+02
5.900000000003069456e-01 3.212177226816375537e+02
6.100000000003065193e-01 3.313240375121814623e+02
6.300000000003060929e-01 3.407986416788336328e+02
6.500000000003056666e-01 3.508767130757595396e+02
6.700000000003052403e-01 3.612728956516543803e+02
6.900000000003048140e-01 3.717255109253661658e+02
7.100000000003043876e-01 3.819601351761569958e+02
7.300000000003039613e-01 3.930483128430332158e+02
7.500000000003035350e-01 4.035078444686748185e+02
7.700000000003031086e-01 4.140314780311798586e+02
7.900000000003026823e-01 4.253081509303754046e+02
8.100000000003022560e-01 4.362706318938689378e+02
8.300000000003018297e-01 4.470197255045350175e+02
8.500000000003014033e-01 4.587223274506246185e+02
8.700000000003009770e-01 4.698289796008120902e+02
8.900000000003005507e-01 4.810121488053127905e+02
9.100000000003001244e-01 4.919016185767895877e+02
9.300000000002996980e-01 5.039817081520344573e+02
9.500000000002992717e-01 5.144955059092758347e+02
9.700000000002988454e-01 5.267247075449905651e+02
9.900000000002984191e-01 5.382984015426610540e+02
1.010000000000297993e+00 5.501694934510604753e+02
1.030000000000297566e+00 5.614227042692284613e+02
1.050000000000297140e+00 5.729761818912011222e+02
1.070000000000296714e+00 5.848538503607298935e+02
1.090000000000296287e+00 5.962372606233790293e+02
1.110000000000295861e+00 6.078914314297461488e+02
1.130000000000295435e+00 6.202326491355528333e+02
1.150000000000295008e+00 6.325162948840533090e+02
1.170000000000294582e+00 6.436855462892710875e+02
1.190000000000294156e+00 6.549185015710879725e+02
1.210000000000293729e+00 6.661480704953454506e+02
1.230000000000293303e+00 6.769472133433727095e+02
1.250000000000292877e+00 6.891334880392665809e+02
1.270000000000292451e+00 7.002910385403391729e+02
1.290000000000292024e+00 7.103568136454676960e+02
1.310000000000291598e+00 7.220933408207639559e+02
1.330000000000291172e+00 7.336378229186984754e+02
1.350000000000290745e+00 7.441611316184169027e+02
1.370000000000290319e+00 7.529212969161626461e+02
1.390000000000289893e+00 7.646563194461058401e+02
1.410000000000289466e+00 7.743700139007432881e+02
1.430000000000289040e+00 7.836062566447984636e+02
1.450000000000288614e+00 7.932330242966733067e+02
1.470000000000288187e+00 8.049082049028738766e+02
1.490000000000287761e+00 8.134779486964364423e+02
1.510000000000287335e+00 8.232721523862691129e+02
1.530000000000286908e+00 8.316480909589214434e+02
1.550000000000286482e+00 8.413843666476874432e+02
1.570000000000286056e+00 8.499573464455534122e+02
1.590000000000285629e+00 8.540277560468402953e+02
1.610000000000285203e+00 8.600847668038379652e+02
1.630000000000284777e+00 8.665245769222337913e+02
1.650000000000284350e+00 8.725457520931298632e+02
1.670000000000283924e+00 8.797891347723453919e+02
1.690000000000283498e+00 8.832762208770318466e+02
1.710000000000283071e+00 8.889898590177908773e+02
1.730000000000282645e+00 8.939702717660801454e+02
1.750000000000282219e+00 8.964507000376985388e+02
1.770000000000281792e+00 9.018945624642237817e+02
1.790000000000281366e+00 9.029184261997697831e+02
1.810000000000280940e+00 9.089142974637086354e+02
1.830000000000280513e+00 9.132882598635528666e+02
1.850000000000280087e+00 9.168732665769193773e+02
1.870000000000279661e+00 9.222369787810685011e+02
1.890000000000279234e+00 9.240046018472236256e+02
1.910000000000278808e+00 9.260273061182737138e+02
1.930000000000278382e+00 9.224270396492941018e+02
1.950000000000277955e+00 9.220381972484987045e+02
1.970000000000277529e+00 9.202501777530428626e+02
1.990000000000277103e+00 9.188777358324134639e+02
2.010000000000276899e+00 9.177629789262452960e+02
2.030000000000276472e+00 9.157743661060252407e+02
2.050000000000276046e+00 9.148764780612847289e+02
2.070000000000275620e+00 9.122299522553431643e+02
2.090000000000275193e+00 9.106966382316393265e+02
2.110000000000274767e+00 9.113629003957014447e+02
2.130000000000274341e+00 9.072898630932695596e+02
2.150000000000273914e+00 8.965841716719214674e+02
2.170000000000273488e+00 8.891298716489624212e+02
2.190000000000273062e+00 8.784829078546932806e+02
2.210000000000272635e+00 8.727840266960365625e+02
2.230000000000272209e+00 8.716978366423047646e+02
2.250000000000271783e+00 8.712360025983954301e+02
2.270000000000271356e+00 8.629385539436875661e+02
2.290000000000270930e+00 8.523712615146981761e+02
2.310000000000270504e+00 8.424479087324724560e+02
2.330000000000270077e+00 8.351300756408738835e+02
2.350000000000269651e+00 8.276525347784914857e+02
2.370000000000269225e+00 8.222882438297897352e+02
2.390000000000268798e+00 8.152196475855866993e+02
2.410000000000268372e+00 8.090373048862944643e+02
2.430000000000267946e+00 8.034013888711574509e+02
2.450000000000267519e+00 7.954952562849703099e+02
2.470000000000267093e+00 7.888678484309290297e+02
2.490000000000266667e+00 7.810340728611673740e+02
2.510000000000266240e+00 7.731483289252852273e+02
2.530000000000265814e+00 7.659139645001886265e+02
2.550000000000265388e+00 7.574744265520740782e+02
2.570000000000264961e+00 7.504541754700813954e+02
2.590000000000264535e+00 7.432386768543153721e+02
2.610000000000264109e+00 7.350438105147823080e+02
2.630000000000263682e+00 7.275532412432306728e+02
2.650000000000263256e+00 7.196536052190137980e+02
2.670000000000262830e+00 7.119983422529926429e+02
2.690000000000262403e+00 7.050729727386172954e+02
2.710000000000261977e+00 6.968422979626228653e+02
2.730000000000261551e+00 6.889544601420527670e+02
2.750000000000261124e+00 6.798125446649220294e+02
2.770000000000260698e+00 6.726413589539217810e+02
2.790000000000260272e+00 6.644106980744559223e+02
2.810000000000259845e+00 6.565794125791494480e+02
2.830000000000259419e+00 6.481812357643707401e+02
2.850000000000258993e+00 6.406264164638241709e+02
2.870000000000258567e+00 6.329291328739027449e+02
2.890000000000258140e+00 6.258966695227569517e+02
2.910000000000257714e+00 6.174707785257470505e+02
2.930000000000257288e+00 6.095568646880877850e+02
2.950000000000256861e+00 6.034710051668810138e+02
2.970000000000256435e+00 5.960331048318538478e+02
2.990000000000256009e+00 5.883688474295100832e+02
3.010000000000255582e+00 5.798386959445667799e+02
3.030000000000255156e+00 5.731095643336735748e+02
3.050000000000254730e+00 5.657693188673124496e+02
3.070000000000254303e+00 5.576940171829439805e+02
3.090000000000253877e+00 5.498954654641106572e+02
3.110000000000253451e+00 5.417257474012823195e+02
3.130000000000253024e+00 5.349437059965969183e+02
3.150000000000252598e+00 5.278856895253652510e+02
3.170000000000252172e+00 5.200662246765901955e+02
3.190000000000251745e+00 5.132805081749243072e+02
3.210000000000251319e+00 5.075831598438143715e+02
3.230000000000250893e+00 5.003925186545897077e+02
3.250000000000250466e+00 4.924733002311352266e+02
3.270000000000250040e+00 4.876700059778456762e+02
3.290000000000249614e+00 4.805568684386516907e+02
3.310000000000249187e+00 4.726569849768289941e+02
3.330000000000248761e+00 4.660437393790764986e+02
3.350000000000248335e+00 4.607142879792800159e+02
3.370000000000247908e+00 4.534366271899270942e+02
3.390000000000247482e+00 4.476582678370628514e+02
3.410000000000247056e+00 4.418979041570679556e+02
3.430000000000246629e+00 4.363617070007736629e+02
3.450000000000246203e+00 4.317566760806201955e+02
3.470000000000245777e+00 4.258487100473511759e+02
3.490000000000245350e+00 4.195519813834986849e+02
3.510000000000244924e+00 4.156344667574105074e+02
3.530000000000244498e+00 4.102451983722812656e+02
3.550000000000244071e+00 4.039761080553018360e+02
3.570000000000243645e+00 3.983429956981819373e+02
3.590000000000243219e+00 3.916956457911397251e+02
3.610000000000242792e+00 3.856304396277413389e+02
3.630000000000242366e+00 3.805612897980304297e+02
3.650000000000241940e+00 3.750605108025058030e+02
3.670000000000241513e+00 3.681003761494790751e+02
3.690000000000241087e+00 3.651687907658879908e+02
3.710000000000240661e+00 3.589148361495981590e+02
3.730000000000240234e+00 3.540130685768210697e+02
3.750000000000239808e+00 3.492064216070168072e+02
3.770000000000239382e+00 3.448372023144560217e+02
3.790000000000238956e+00 3.411790503407905817e+02
3.810000000000238529e+00 3.352524357634794683e+02
3.830000000000238103e+00 3.317947148425324713e+02
3.850000000000237677e+00 3.282206007634518414e+02
3.870000000000237250e+00 3.249229980324657276e+02
3.890000000000236824e+00 3.205515483838553905e+02
3.910000000000236398e+00 3.155174042910081198e+02
3.930000000000235971e+00 3.103433431149989019e+02
3.950000000000235545e+00 3.060835506558850625e+02
3.970000000000235119e+00 3.016594122424044144e+02
3.990000000000234692e+00 2.981210919880138590e+02
4.010000000000234266e+00 2.942285858630662574e+02
4.030000000000233840e+00 2.901449251216423590e+02
4.050000000000233413e+00 2.864765011922573876e+02
4.070000000000232987e+00 2.841298924682734537e+02
4.090000000000232561e+00 2.800610208323099641e+02
4.110000000000232134e+00 2.771871616863879240e+02
4.130000000000231708e+00 2.727910362678904903e+02
4.150000000000231282e+00 2.706085231390960075e+02
4.170000000000230855e+00 2.675005530901051998e+02
4.190000000000230429e+00 2.643346050915812953e+02
4.210000000000230003e+00 2.610787414995243694e+02
4.230000000000229576e+00 2.584131577447176937e+02
4.250000000000229150e+00 2.561224530628505818e+02
4.270000000000228724e+00 2.527740358750905330e+02
4.290000000000228297e+00 2.494945634904881615e+02
4.310000000000227871e+00 2.469084653876465438e+02
4.330000000000227445e+00 2.443630092092678581e+02
4.350000000000227018e+00 2.422886183306659404e+02
4.370000000000226592e+00 2.395553755364685458e+02
4.390000000000226166e+00 2.367240461954504269e+02
4.410000000000225739e+00 2.346557351125044875e+02
4.430000000000225313e+00 2.325587293338035408e+02
4.450000000000224887e+00 2.304246623358521049e+02
4.470000000000224460e+00 2.283933022787807374e+02
4.490000000000224034e+00 2.256000633096434456e+02
4.510000000000223608e+00 2.236406514026894001e+02
4.530000000000223181e+00 2.215202423621194328e+02
4.550000000000222755e+00 2.200371541020898576e+02
4.570000000000222329e+00 2.174939552646837910e+02
4.590000000000221902e+00 2.150563978316477289e+02
4.610000000000221476e+00 2.127681186029650178e+02
4.630000000000221050e+00 2.106297838318854758e+02
4.650000000000220624e+00 2.080223403270817641e+02
4.670000000000220197e+00 2.056482261704521193e+02
4.690000000000219771e+00 2.042601459250358573e+02
4.710000000000219345e+00 2.019401097702012180e+02
4.730000000000218918e+00 1.994856523341305774e+02
4.750000000000218492e+00 1.980267534053063514e+02
4.770000000000218066e+00 1.955030545303266365e+02
4.790000000000217639e+00 1.943686795242919061e+02
4.810000000000217213e+00 1.924681523440279136e+02
4.830000000000216787e+00 1.908701012467526823e+02
4.850000000000216360e+00 1.891159363819201928e+02
4.870000000000215934e+00 1.876876526654120312e+02
4.890000000000215508e+00 1.862482054551300052e+02
4.910000000000215081e+00 1.844575004790683579e+02
4.930000000000214655e+00 1.836790912370117894e+02
4.950000000000214229e+00 1.818518421071146349e+02
4.970000000000213802e+00 1.805650063929750218e+02
4.990000000000213376e+00 1.795858962129515817e+02
5.010000000000212950e+00 1.780592418873675342e+02
5.030000000000212523e+00 1.772181212586136496e+02
5.050000000000212097e+00 1.748724061232047688e+02
5.070000000000211671e+00 1.737806086757641424e+02
5.090000000000211244e+00 1.727502315062855587e+02
5.110000000000210818e+00 1.711901164690288510e+02
5.130000000000210392e+00 1.707171324256952403e+02
5.150000000000209965e+00 1.694125253779130276e+02
5.170000000000209539e+00 1.684254439975692605e+02
5.190000000000209113e+00 1.677323952287076168e+02
5.210000000000208686e+00 1.667871882665046996e+02
5.230000000000208260e+00 1.659158108399389278e+02
5.250000000000207834e+00 1.651285844224446748e+02
5.270000000000207407e+00 1.640270710358335009e+02
5.290000000000206981e+00 1.629328789893685610e+02
5.310000000000206555e+00 1.621434745493617129e+02
5.330000000000206128e+00 1.610010342751199062e+02
5.350000000000205702e+00 1.600402717119463318e+02
5.370000000000205276e+00 1.591282304674555803e+02
5.390000000000204849e+00 1.573917133837895506e+02
5.410000000000204423e+00 1.572930536996159958e+02
5.430000000000203997e+00 1.559398005887735508e+02
5.450000000000203570e+00 1.548057662294171735e+02
5.470000000000203144e+00 1.534180421388275306e+02
5.490000000000202718e+00 1.527341684284787675e+02
5.510000000000202292e+00 1.521517505284320180e+02
5.530000000000201865e+00 1.512303920522648752e+02
5.550000000000201439e+00 1.502186745046722649e+02
5.570000000000201013e+00 1.494596469115265904e+02
5.590000000000200586e+00 1.485879871515811885e+02
5.610000000000200160e+00 1.481001763053720879e+02
5.630000000000199734e+00 1.476640948223160876e+02
5.650000000000199307e+00 1.473042364064886556e+02
5.670000000000198881e+00 1.470149026689489347e+02
5.690000000000198455e+00 1.454443961688139382e+02
5.710000000000198028e+00 1.448961136040428244e+02
5.730000000000197602e+00 1.445026296935818095e+02
5.750000000000197176e+00 1.440197108591966924e+02
5.770000000000196749e+00 1.438529098111992823e+02
5.790000000000196323e+00 1.430052750284030765e+02
5.810000000000195897e+00 1.426332020756128429e+02
5.830000000000195470e+00 1.425235418187908465e+02
5.850000000000195044e+00 1.421489557835492406e+02
5.870000000000194618e+00 1.416818857527303237e+02
5.890000000000194191e+00 1.411406053265871776e+02
5.910000000000193765e+00 1.406475471347861799e+02
5.930000000000193339e+00 1.403537638265391081e+02
5.950000000000192912e+00 1.397274126024082932e+02
5.970000000000192486e+00 1.394478681731527274e+02
5.990000000000192060e+00 1.391047246185886763e+02
6.010000000000191633e+00 1.383912146000900805e+02
6.030000000000191207e+00 1.379371386321558646e+02
6.050000000000190781e+00 1.378092568021354793e+02
6.070000000000190354e+00 1.366987218164893534e+02
6.090000000000189928e+00 1.368048852326921860e+02
6.110000000000189502e+00 1.363156967247573164e+02
6.130000000000189075e+00 1.357933330878600771e+02
6.150000000000188649e+00 1.353381621299140818e+02
6.170000000000188223e+00 1.348631676008784837e+02
6.190000000000187796e+00 1.349224590759076818e+02
6.210000000000187370e+00 1.345981949185793098e+02
6.230000000000186944e+00 1.343700560510175421e+02
6.250000000000186517e+00 1.336152537598537151e+02
6.270000000000186091e+00 1.334398376196778031e+02
6.290000000000185665e+00 1.329225162969282792e+02
6.310000000000185238e+00 1.326405974212419210e+02
6.330000000000184812e+00 1.326566347679960529e+02
6.350000000000184386e+00 1.324506884988554987e+02
6.370000000000183960e+00 1.321206090059664291e+02
6.390000000000183533e+00 1.317940365379652690e+02
6.410000000000183107e+00 1.320773019175142906e+02
6.430000000000182681e+00 1.317220244173749393e+02
6.450000000000182254e+00 1.314546634702179517e+02
6.470000000000181828e+00 1.313625714509647935e+02
6.490000000000181402e+00 1.312132761268529464e+02
6.510000000000180975e+00 1.311945793995273846e+02
6.530000000000180549e+00 1.310163554337089522e+02
6.550000000000180123e+00 1.310085863823163947e+02
6.570000000000179696e+00 1.307512723170259221e+02
6.590000000000179270e+00 1.301437734350600408e+02
6.610000000000178844e+00 1.304290453511144108e+02
6.630000000000178417e+00 1.305642967403494197e+02
6.650000000000177991e+00 1.296723201083401875e+02
6.670000000000177565e+00 1.296575447484079575e+02
6.690000000000177138e+00 1.296611705005680619e+02
6.710000000000176712e+00 1.298202797910083746e+02
6.730000000000176286e+00 1.293250924807474291e+02
6.750000000000175859e+00 1.288862132399867733e+02
6.770000000000175433e+00 1.286777560331326811e+02
6.790000000000175007e+00 1.286579191654773808e+02
6.810000000000174580e+00 1.281717479471468835e+02
6.830000000000174154e+00 1.285106687035708148e+02
6.850000000000173728e+00 1.287344338071319498e+02
6.870000000000173301e+00 1.284675512764294751e+02
6.890000000000172875e+00 1.281537361726970801e+02
6.910000000000172449e+00 1.282662097895187401e+02
6.930000000000172022e+00 1.282873516301104075e+02
6.950000000000171596e+00 1.281571766988302841e+02
6.970000000000171170e+00 1.283645479171362069e+02
6.990000000000170743e+00 1.282814440816297008e+02
7.010000000000170317e+00 1.284428152855672920e+02
7.030000000000169891e+00 1.282629677816078981e+02
7.050000000000169464e+00 1.282997334255993565e+02
7.070000000000169038e+00 1.283315772830528942e+02
7.090000000000168612e+00 1.281968593771713643e+02
7.110000000000168185e+00 1.279515450947443895e+02
7.130000000000167759e+00 1.280821447434125560e+02
7.150000000000167333e+00 1.284190750931638263e+02
7.170000000000166906e+00 1.279574120725866777e+02
7.190000000000166480e+00 1.278965954557977369e+02
7.210000000000166054e+00 1.273605797979189447e+02
7.230000000000165628e+00 1.278662824650249519e+02
7.250000000000165201e+00 1.276728584405135649e+02
7.270000000000164775e+00 1.273413540486481850e+02
7.290000000000164349e+00 1.279894736188842757e+02
7.310000000000163922e+00 1.275479530119464897e+02
7.330000000000163496e+00 1.275435824545823209e+02
7.350000000000163070e+00 1.277727436734654560e+02
7.370000000000162643e+00 1.275938418399379657e+02
7.390000000000162217e+00 1.276095033380530879e+02
7.410000000000161791e+00 1.276971633728809365e+02
7.430000000000161364e+00 1.277617297406895744e+02
7.450000000000160938e+00 1.279074018639890937e+02
7.470000000000160512e+00 1.280493786485460532e+02
7.490000000000160085e+00 1.280199338375898606e+02
7.510000000000159659e+00 1.279667079854155247e+02
7.530000000000159233e+00 1.281785841516625624e+02
7.550000000000158806e+00 1.282003272837358168e+02
7.570000000000158380e+00 1.282228320599311644e+02
7.590000000000157954e+00 1.282853978111153026e+02
7.610000000000157527e+00 1.284774984751830118e+02
7.630000000000157101e+00 1.281884943161913668e+02
7.650000000000156675e+00 1.278982671474891504e+02
7.670000000000156248e+00 1.282348909377864743e+02
7.690000000000155822e+00 1.281310694584672660e+02
7.710000000000155396e+00 1.284942832368761856e+02
7.730000000000154969e+00 1.283714936219558922e+02
7.750000000000154543e+00 1.279921222182066884e+02
7.770000000000154117e+00 1.282793356924210855e+02
7.790000000000153690e+00 1.283951739611609355e+02
7.810000000000153264e+00 1.286433626601424578e+02
7.830000000000152838e+00 1.286871897174979722e+02
7.850000000000152411e+00 1.284854219943820226e+02
7.870000000000151985e+00 1.287921219926038248e+02
7.890000000000151559e+00 1.286060576601607011e+02
7.910000000000151132e+00 1.287345697264132411e+02
7.930000000000150706e+00 1.289234565609008598e+02
7.950000000000150280e+00 1.290706535820119427e+02
7.970000000000149853e+00 1.291557810459362088e+02
