# Redshift		Merger Rate Density [Gpc^-3yr^-1]
1.000000000031931770e-02 3.306996067023573573e+02
3.000000000031888964e-02 3.471132295553174458e+02
5.000000000031846331e-02 3.588692759535342134e+02
7.000000000031804392e-02 3.750954333304878219e+02
9.000000000031761760e-02 3.916453068681296941e+02
1.100000000003171913e-01 4.072986704459763700e+02
1.300000000003167511e-01 4.227497561957554808e+02
1.500000000003163247e-01 4.399512016573052051e+02
1.700000000003158984e-01 4.572238870248223179e+02
1.900000000003154721e-01 4.750826633781622945e+02
2.100000000003150458e-01 4.946729985373193585e+02
2.300000000003146194e-01 5.114198856949946617e+02
2.500000000003141931e-01 5.307731519057407468e+02
2.700000000003137668e-01 5.492128501414401853e+02
2.900000000003133405e-01 5.705711059525458495e+02
3.100000000003129141e-01 5.899963680688314298e+02
3.300000000003124878e-01 6.080557040352028935e+02
3.500000000003120615e-01 6.285322578393759159e+02
3.700000000003116352e-01 6.506270825431306548e+02
3.900000000003112088e-01 6.696430677902100115e+02
4.100000000003107825e-01 6.934424205709009357e+02
4.300000000003103562e-01 7.125837194269496422e+02
4.500000000003099299e-01 7.336521335283152894e+02
4.700000000003095035e-01 7.583343896972606899e+02
4.900000000003090772e-01 7.746562041996477319e+02
5.100000000003086509e-01 8.012852121826406346e+02
5.300000000003082246e-01 8.220728754182377997e+02
5.500000000003077982e-01 8.464154149089964676e+02
5.700000000003073719e-01 8.612425475821385135e+02
5.900000000003069456e-01 8.893073710873255777e+02
6.100000000003065193e-01 9.054869714997645360e+02
6.300000000003060929e-01 9.297547856995466873e+02
6.500000000003056666e-01 9.541900731015674637e+02
6.700000000003052403e-01 9.733665330337446449e+02
6.900000000003048140e-01 9.925037068954968618e+02
7.100000000003043876e-01 1.014958746045070029e+03
7.300000000003039613e-01 1.035409417760198266e+03
7.500000000003035350e-01 1.059797631347470087e+03
7.700000000003031086e-01 1.076647060315952103e+03
7.900000000003026823e-01 1.099299305421381860e+03
8.100000000003022560e-01 1.115576434089206941e+03
8.300000000003018297e-01 1.141282540843909601e+03
8.500000000003014033e-01 1.152352434891833582e+03
8.700000000003009770e-01 1.173469535759714745e+03
8.900000000003005507e-01 1.197000661755228748e+03
9.100000000003001244e-01 1.213254909929316227e+03
9.300000000002996980e-01 1.226445574743829866e+03
9.500000000002992717e-01 1.244684830634123273e+03
9.700000000002988454e-01 1.262420643678230363e+03
9.900000000002984191e-01 1.278204272640157797e+03
1.010000000000297993e+00 1.294118853653618999e+03
1.030000000000297566e+00 1.305026249315744053e+03
1.050000000000297140e+00 1.322735642112366804e+03
1.070000000000296714e+00 1.335116576631865883e+03
1.090000000000296287e+00 1.349576383003008459e+03
1.110000000000295861e+00 1.364655617646153360e+03
1.130000000000295435e+00 1.372737035668887756e+03
1.150000000000295008e+00 1.384349153363565165e+03
1.170000000000294582e+00 1.395842508426601171e+03
1.190000000000294156e+00 1.400110833130378069e+03
1.210000000000293729e+00 1.416831523516001653e+03
1.230000000000293303e+00 1.419330044497858808e+03
1.250000000000292877e+00 1.430337097384063327e+03
1.270000000000292451e+00 1.433152072545422470e+03
1.290000000000292024e+00 1.446361961097317590e+03
1.310000000000291598e+00 1.446228162013600240e+03
1.330000000000291172e+00 1.456120058052217018e+03
1.350000000000290745e+00 1.460212489718238430e+03
1.370000000000290319e+00 1.463294392488611720e+03
1.390000000000289893e+00 1.461932502914620045e+03
1.410000000000289466e+00 1.465861841611826321e+03
1.430000000000289040e+00 1.473491262022870387e+03
1.450000000000288614e+00 1.466844999503922054e+03
1.470000000000288187e+00 1.470979978456846311e+03
1.490000000000287761e+00 1.470671106061999581e+03
1.510000000000287335e+00 1.469704537533259099e+03
1.530000000000286908e+00 1.470027346543653948e+03
1.550000000000286482e+00 1.466989398151004025e+03
1.570000000000286056e+00 1.464452823563877701e+03
1.590000000000285629e+00 1.463793769284686050e+03
1.610000000000285203e+00 1.460712465089397710e+03
1.630000000000284777e+00 1.456281778782046786e+03
1.650000000000284350e+00 1.443991620289185903e+03
1.670000000000283924e+00 1.448344996618972118e+03
1.690000000000283498e+00 1.440008892524224621e+03
1.710000000000283071e+00 1.433961822899032086e+03
1.730000000000282645e+00 1.424443596441093405e+03
1.750000000000282219e+00 1.420265761105737738e+03
1.770000000000281792e+00 1.411487306525392114e+03
1.790000000000281366e+00 1.400703919572643372e+03
1.810000000000280940e+00 1.396963462796979456e+03
1.830000000000280513e+00 1.390613947509964191e+03
1.850000000000280087e+00 1.371461386616605751e+03
1.870000000000279661e+00 1.365375354328512458e+03
1.890000000000279234e+00 1.354883486779052646e+03
1.910000000000278808e+00 1.346028696153081228e+03
1.930000000000278382e+00 1.341132440498147844e+03
1.950000000000277955e+00 1.322914945466639665e+03
1.970000000000277529e+00 1.307884429005026959e+03
1.990000000000277103e+00 1.300643986445986457e+03
2.010000000000276899e+00 1.287937287416828667e+03
2.030000000000276472e+00 1.273370188339358720e+03
2.050000000000276046e+00 1.262869486056433971e+03
2.070000000000275620e+00 1.250119463324538856e+03
2.090000000000275193e+00 1.238838154064170112e+03
2.110000000000274767e+00 1.220843575336169806e+03
2.130000000000274341e+00 1.209654712036191313e+03
2.150000000000273914e+00 1.196872792894906979e+03
2.170000000000273488e+00 1.183513498623095529e+03
2.190000000000273062e+00 1.169603245024065018e+03
2.210000000000272635e+00 1.152326669988366575e+03
2.230000000000272209e+00 1.138952111578964832e+03
2.250000000000271783e+00 1.129139672878014380e+03
2.270000000000271356e+00 1.110335951003939499e+03
2.290000000000270930e+00 1.097819838109663579e+03
2.310000000000270504e+00 1.085647678020262902e+03
2.330000000000270077e+00 1.069969485260998681e+03
2.350000000000269651e+00 1.051652798424213870e+03
2.370000000000269225e+00 1.042927439996918565e+03
2.390000000000268798e+00 1.025974132683902099e+03
2.410000000000268372e+00 1.011726136686759219e+03
2.430000000000267946e+00 9.985138775441535017e+02
2.450000000000267519e+00 9.824041300400278942e+02
2.470000000000267093e+00 9.699350656312388992e+02
2.490000000000266667e+00 9.544938313504762846e+02
2.510000000000266240e+00 9.424847325803135618e+02
2.530000000000265814e+00 9.271525030293340706e+02
2.550000000000265388e+00 9.136166372052566658e+02
2.570000000000264961e+00 8.999427927294211713e+02
2.590000000000264535e+00 8.867012740422763954e+02
2.610000000000264109e+00 8.732475781667301362e+02
2.630000000000263682e+00 8.572572895582773072e+02
2.650000000000263256e+00 8.463065832208451411e+02
2.670000000000262830e+00 8.325450796425890303e+02
2.690000000000262403e+00 8.213222255646027179e+02
2.710000000000261977e+00 8.052192683404409763e+02
2.730000000000261551e+00 7.969686300035589284e+02
2.750000000000261124e+00 7.792755790501901174e+02
2.770000000000260698e+00 7.656499438088732177e+02
2.790000000000260272e+00 7.585403504975745363e+02
2.810000000000259845e+00 7.442628746425471036e+02
2.830000000000259419e+00 7.316636747197010209e+02
2.850000000000258993e+00 7.179021643518046858e+02
2.870000000000258567e+00 7.086269893707711844e+02
2.890000000000258140e+00 6.936447287370275490e+02
2.910000000000257714e+00 6.846374588465282613e+02
2.930000000000257288e+00 6.734697829067853263e+02
2.950000000000256861e+00 6.640212615364242765e+02
2.970000000000256435e+00 6.517366010759526489e+02
2.990000000000256009e+00 6.398921288914317529e+02
3.010000000000255582e+00 6.293526397442420830e+02
3.030000000000255156e+00 6.201166117189256966e+02
3.050000000000254730e+00 6.101677305020954236e+02
3.070000000000254303e+00 5.988865246738714632e+02
3.090000000000253877e+00 5.882408079007921060e+02
3.110000000000253451e+00 5.796047540515488663e+02
3.130000000000253024e+00 5.701338565537671457e+02
3.150000000000252598e+00 5.606118245708701124e+02
3.170000000000252172e+00 5.501728033548961321e+02
3.190000000000251745e+00 5.405101388110716698e+02
3.210000000000251319e+00 5.340829979122482882e+02
3.230000000000250893e+00 5.218001412751807493e+02
3.250000000000250466e+00 5.138724907374736404e+02
3.270000000000250040e+00 5.076406704043603781e+02
3.290000000000249614e+00 4.970462073093527238e+02
3.310000000000249187e+00 4.896152341842910118e+02
3.330000000000248761e+00 4.823517986023351796e+02
3.350000000000248335e+00 4.723335920170455324e+02
3.370000000000247908e+00 4.663912013310298903e+02
3.390000000000247482e+00 4.578119580772728909e+02
3.410000000000247056e+00 4.510205396586471807e+02
3.430000000000246629e+00 4.419025410914130134e+02
3.450000000000246203e+00 4.349943331966528604e+02
3.470000000000245777e+00 4.290179612930177200e+02
3.490000000000245350e+00 4.204091452989160871e+02
3.510000000000244924e+00 4.139211157967707209e+02
3.530000000000244498e+00 4.086503573540943535e+02
3.550000000000244071e+00 4.014243017951453680e+02
3.570000000000243645e+00 3.954335390411378057e+02
3.590000000000243219e+00 3.896111713415850204e+02
3.610000000000242792e+00 3.826744765419886107e+02
3.630000000000242366e+00 3.756184339828511725e+02
3.650000000000241940e+00 3.716774006082454775e+02
3.670000000000241513e+00 3.651428583835120776e+02
3.690000000000241087e+00 3.595347377774621691e+02
3.710000000000240661e+00 3.536159355614744300e+02
3.730000000000240234e+00 3.480974791029192943e+02
3.750000000000239808e+00 3.438238959747702097e+02
3.770000000000239382e+00 3.380516887721383910e+02
3.790000000000238956e+00 3.331823556175055501e+02
3.810000000000238529e+00 3.275522290678332524e+02
3.830000000000238103e+00 3.239036952833808414e+02
3.850000000000237677e+00 3.187034303550697700e+02
3.870000000000237250e+00 3.143839375970427454e+02
3.890000000000236824e+00 3.099457622084412378e+02
3.910000000000236398e+00 3.050547365049985729e+02
3.930000000000235971e+00 3.005068035036945844e+02
3.950000000000235545e+00 2.969483064931708896e+02
3.970000000000235119e+00 2.930311650153694245e+02
3.990000000000234692e+00 2.865086584276993449e+02
4.010000000000234266e+00 2.844248200097180188e+02
4.030000000000233840e+00 2.812072248833281378e+02
4.050000000000233413e+00 2.769478410062932312e+02
4.070000000000232987e+00 2.734612920394388880e+02
4.090000000000232561e+00 2.691707937808508859e+02
4.110000000000232134e+00 2.657845014431173354e+02
4.130000000000231708e+00 2.631542515013453567e+02
4.150000000000231282e+00 2.591793925555477927e+02
4.170000000000230855e+00 2.559333175670263643e+02
4.190000000000230429e+00 2.531523727965012256e+02
4.210000000000230003e+00 2.492084591767631991e+02
4.230000000000229576e+00 2.472261479578228602e+02
4.250000000000229150e+00 2.435484712661146034e+02
4.270000000000228724e+00 2.406942240354815112e+02
4.290000000000228297e+00 2.381526341923814698e+02
4.310000000000227871e+00 2.355073478590643106e+02
4.330000000000227445e+00 2.320740784457551626e+02
4.350000000000227018e+00 2.300531409627612334e+02
4.370000000000226592e+00 2.264295346970939136e+02
4.390000000000226166e+00 2.239069441905545830e+02
4.410000000000225739e+00 2.219212369866963854e+02
4.430000000000225313e+00 2.198541550536815805e+02
4.450000000000224887e+00 2.164435058006687314e+02
4.470000000000224460e+00 2.150008306427777995e+02
4.490000000000224034e+00 2.119092059798107357e+02
4.510000000000223608e+00 2.107892345606637718e+02
4.530000000000223181e+00 2.074822735331781018e+02
4.550000000000222755e+00 2.057996123090903779e+02
4.570000000000222329e+00 2.037267725852767910e+02
4.590000000000221902e+00 2.021687460536503806e+02
4.610000000000221476e+00 1.993176763448977908e+02
4.630000000000221050e+00 1.984169006631431103e+02
4.650000000000220624e+00 1.962200331069662127e+02
4.670000000000220197e+00 1.936696987603294247e+02
4.690000000000219771e+00 1.915087694737399886e+02
4.710000000000219345e+00 1.898273068469413545e+02
4.730000000000218918e+00 1.883942007696191183e+02
4.750000000000218492e+00 1.866200557496334511e+02
4.770000000000218066e+00 1.848210610556128017e+02
4.790000000000217639e+00 1.825443049750642786e+02
4.810000000000217213e+00 1.813863381367823422e+02
4.830000000000216787e+00 1.795942379962274629e+02
4.850000000000216360e+00 1.774158662670704416e+02
4.870000000000215934e+00 1.775562130827302383e+02
4.890000000000215508e+00 1.752014938343089341e+02
4.910000000000215081e+00 1.733222210263831187e+02
4.930000000000214655e+00 1.716012433287245358e+02
4.950000000000214229e+00 1.705215600874370523e+02
4.970000000000213802e+00 1.699383892555848377e+02
4.990000000000213376e+00 1.680397796237505759e+02
5.010000000000212950e+00 1.660509552122093169e+02
5.030000000000212523e+00 1.651158420389309072e+02
5.050000000000212097e+00 1.639268099917850066e+02
5.070000000000211671e+00 1.618506319680446666e+02
5.090000000000211244e+00 1.612533745375208412e+02
5.110000000000210818e+00 1.601369615448134311e+02
5.130000000000210392e+00 1.584205152679986384e+02
5.150000000000209965e+00 1.579077853895679766e+02
5.170000000000209539e+00 1.560484036373823074e+02
5.190000000000209113e+00 1.543346311286498178e+02
5.210000000000208686e+00 1.539037504341023350e+02
5.230000000000208260e+00 1.524201051251709771e+02
5.250000000000207834e+00 1.513520238750384976e+02
5.270000000000207407e+00 1.496667512217482283e+02
5.290000000000206981e+00 1.496510137152307323e+02
5.310000000000206555e+00 1.486409608087575407e+02
5.330000000000206128e+00 1.469205994723265292e+02
5.350000000000205702e+00 1.456782671343453615e+02
5.370000000000205276e+00 1.452066504501167401e+02
5.390000000000204849e+00 1.440977839835992143e+02
5.410000000000204423e+00 1.432918892774133042e+02
5.430000000000203997e+00 1.421563069539057267e+02
5.450000000000203570e+00 1.411335816881181131e+02
5.470000000000203144e+00 1.405560819157902017e+02
5.490000000000202718e+00 1.390544304389639194e+02
5.510000000000202292e+00 1.384309634952018655e+02
5.530000000000201865e+00 1.380241689174893907e+02
5.550000000000201439e+00 1.355100225590246339e+02
5.570000000000201013e+00 1.350292382343192230e+02
5.590000000000200586e+00 1.333566711204886417e+02
5.610000000000200160e+00 1.328448015018195179e+02
5.630000000000199734e+00 1.333681172467966292e+02
5.650000000000199307e+00 1.311636258950551337e+02
5.670000000000198881e+00 1.304187332425640875e+02
5.690000000000198455e+00 1.295416055581939645e+02
5.710000000000198028e+00 1.284300627445264240e+02
5.730000000000197602e+00 1.282685892667380756e+02
5.750000000000197176e+00 1.276197078228042869e+02
5.770000000000196749e+00 1.255770186665697707e+02
5.790000000000196323e+00 1.260887903424521852e+02
5.810000000000195897e+00 1.239534730754925391e+02
5.830000000000195470e+00 1.239671406425062798e+02
5.850000000000195044e+00 1.223983410931809885e+02
5.870000000000194618e+00 1.218901912732490871e+02
5.890000000000194191e+00 1.211443044821842818e+02
5.910000000000193765e+00 1.203053635512012960e+02
5.930000000000193339e+00 1.191338971895874295e+02
5.950000000000192912e+00 1.191145594407722257e+02
5.970000000000192486e+00 1.186747245065683245e+02
5.990000000000192060e+00 1.174824038638031141e+02
6.010000000000191633e+00 1.170816612785975508e+02
6.030000000000191207e+00 1.162714599616466415e+02
6.050000000000190781e+00 1.155386884439172093e+02
6.070000000000190354e+00 1.146971190604971440e+02
6.090000000000189928e+00 1.145739766404189481e+02
6.110000000000189502e+00 1.136953167453326472e+02
6.130000000000189075e+00 1.134514012166304440e+02
6.150000000000188649e+00 1.115525140077865274e+02
6.170000000000188223e+00 1.113949034144270627e+02
6.190000000000187796e+00 1.108150913359543068e+02
6.210000000000187370e+00 1.096253640363756290e+02
6.230000000000186944e+00 1.088387156574509902e+02
6.250000000000186517e+00 1.084987566512696020e+02
6.270000000000186091e+00 1.075063726916822873e+02
6.290000000000185665e+00 1.071552412117910080e+02
6.310000000000185238e+00 1.067084129577572327e+02
6.330000000000184812e+00 1.055577695984129747e+02
6.350000000000184386e+00 1.045470759359277650e+02
6.370000000000183960e+00 1.044386262899020323e+02
6.390000000000183533e+00 1.037667178229926748e+02
6.410000000000183107e+00 1.030040533182321099e+02
6.430000000000182681e+00 1.026967877717701327e+02
6.450000000000182254e+00 1.019596034997535554e+02
6.470000000000181828e+00 1.009183655559610742e+02
6.490000000000181402e+00 1.007886524833238582e+02
6.510000000000180975e+00 1.003262030449541840e+02
6.530000000000180549e+00 1.001044217848649964e+02
6.550000000000180123e+00 9.913339669906265783e+01
6.570000000000179696e+00 9.881743229657844552e+01
6.590000000000179270e+00 9.847196184523916429e+01
6.610000000000178844e+00 9.808012865984153450e+01
6.630000000000178417e+00 9.744693128583428177e+01
6.650000000000177991e+00 9.726724952483607467e+01
6.670000000000177565e+00 9.683146930062987678e+01
6.690000000000177138e+00 9.627892827939169251e+01
6.710000000000176712e+00 9.555349457850958572e+01
6.730000000000176286e+00 9.548604499757168185e+01
6.750000000000175859e+00 9.486545673142332191e+01
6.770000000000175433e+00 9.386721791258793246e+01
6.790000000000175007e+00 9.366301172014951248e+01
6.810000000000174580e+00 9.358256695797328462e+01
6.830000000000174154e+00 9.301204170615609712e+01
6.850000000000173728e+00 9.218693945980601256e+01
6.870000000000173301e+00 9.212277835300710649e+01
6.890000000000172875e+00 9.118733396225451315e+01
6.910000000000172449e+00 9.120068898015665582e+01
6.930000000000172022e+00 9.073675780577463001e+01
6.950000000000171596e+00 9.044248903635572390e+01
6.970000000000171170e+00 9.001042214682989595e+01
6.990000000000170743e+00 8.954381507604098545e+01
7.010000000000170317e+00 8.913068989731955583e+01
7.030000000000169891e+00 8.893428771245328335e+01
7.050000000000169464e+00 8.890085926752259127e+01
7.070000000000169038e+00 8.851538618914440804e+01
7.090000000000168612e+00 8.850618859755856249e+01
7.110000000000168185e+00 8.802017447112956461e+01
7.130000000000167759e+00 8.781386913337667011e+01
7.150000000000167333e+00 8.735238666133437846e+01
7.170000000000166906e+00 8.730296716855718842e+01
7.190000000000166480e+00 8.696924813607326143e+01
7.210000000000166054e+00 8.698220796871608229e+01
7.230000000000165628e+00 8.696150161976679271e+01
7.250000000000165201e+00 8.625385867707110776e+01
7.270000000000164775e+00 8.586286384194380616e+01
7.290000000000164349e+00 8.597675400975120397e+01
7.310000000000163922e+00 8.528534607686907520e+01
7.330000000000163496e+00 8.553770597747271154e+01
7.350000000000163070e+00 8.536786234947491891e+01
7.370000000000162643e+00 8.466441891119285401e+01
7.390000000000162217e+00 8.425537735013939766e+01
7.410000000000161791e+00 8.420570548215081885e+01
7.430000000000161364e+00 8.422316324421011302e+01
7.450000000000160938e+00 8.424779720569283370e+01
7.470000000000160512e+00 8.364504134603086527e+01
7.490000000000160085e+00 8.356710946399451245e+01
7.510000000000159659e+00 8.328961207565713210e+01
7.530000000000159233e+00 8.349909127327161684e+01
7.550000000000158806e+00 8.286721196612599272e+01
7.570000000000158380e+00 8.297800522609105656e+01
7.590000000000157954e+00 8.296419489005191394e+01
7.610000000000157527e+00 8.294138111042691719e+01
7.630000000000157101e+00 8.310868410642710558e+01
7.650000000000156675e+00 8.271013994210440501e+01
7.670000000000156248e+00 8.277308003169643769e+01
7.690000000000155822e+00 8.227919498436405377e+01
7.710000000000155396e+00 8.272421753961511115e+01
7.730000000000154969e+00 8.234264079882655096e+01
7.750000000000154543e+00 8.230570439170338659e+01
7.770000000000154117e+00 8.183003937140030359e+01
7.790000000000153690e+00 8.184216326885608339e+01
7.810000000000153264e+00 8.160888076542207159e+01
7.830000000000152838e+00 8.137122160717666475e+01
7.850000000000152411e+00 8.141144377922370268e+01
7.870000000000151985e+00 8.110970805394282479e+01
7.890000000000151559e+00 8.095297441735799282e+01
7.910000000000151132e+00 8.101245497361051662e+01
7.930000000000150706e+00 8.077081130147819010e+01
7.950000000000150280e+00 8.081899817055281687e+01
7.970000000000149853e+00 8.060476962457610739e+01
