# Redshift		Merger Rate Density [Gpc^-3yr^-1]
1.000000000031931770e-02 9.657475562522147072e+01
3.000000000031888964e-02 1.015215475511624277e+02
5.000000000031846331e-02 1.067188945736975114e+02
7.000000000031804392e-02 1.116845646543529114e+02
9.000000000031761760e-02 1.169454771367423120e+02
1.100000000003171913e-01 1.221206077597318114e+02
1.300000000003167511e-01 1.279658388579498194e+02
1.500000000003163247e-01 1.332322570695382353e+02
1.700000000003158984e-01 1.390138100355666495e+02
1.900000000003154721e-01 1.450139030960419007e+02
2.100000000003150458e-01 1.509748209063169782e+02
2.300000000003146194e-01 1.566771752493102952e+02
2.500000000003141931e-01 1.633860189145671313e+02
2.700000000003137668e-01 1.691762526839038685e+02
2.900000000003133405e-01 1.761773693107871850e+02
3.100000000003129141e-01 1.827962878302805336e+02
3.300000000003124878e-01 1.895815592066887518e+02
3.500000000003120615e-01 1.964873762877004140e+02
3.700000000003116352e-01 2.037194415524198519e+02
3.900000000003112088e-01 2.110892133244936986e+02
4.100000000003107825e-01 2.184571710202194197e+02
4.300000000003103562e-01 2.258958753267845339e+02
4.500000000003099299e-01 2.332695854770040853e+02
4.700000000003095035e-01 2.411734831896433491e+02
4.900000000003090772e-01 2.488187807714955397e+02
5.100000000003086509e-01 2.572603928552904335e+02
5.300000000003082246e-01 2.654313236091521730e+02
5.500000000003077982e-01 2.739907566729383461e+02
5.700000000003073719e-01 2.823086716244216063e+02
5.900000000003069456e-01 2.913071505176418441e+02
6.100000000003065193e-01 2.996049807755450729e+02
6.300000000003060929e-01 3.082596400112926176e+02
6.500000000003056666e-01 3.178279591429744642e+02
6.700000000003052403e-01 3.267828433043146106e+02
6.900000000003048140e-01 3.353535083569546487e+02
7.100000000003043876e-01 3.448881096351263409e+02
7.300000000003039613e-01 3.545998681849571881e+02
7.500000000003035350e-01 3.640401192563313089e+02
7.700000000003031086e-01 3.738364850045281287e+02
7.900000000003026823e-01 3.833523855859407377e+02
8.100000000003022560e-01 3.933656569115555612e+02
8.300000000003018297e-01 4.031549358430249868e+02
8.500000000003014033e-01 4.141287805298539411e+02
8.700000000003009770e-01 4.222151784248758304e+02
8.900000000003005507e-01 4.333020817335527113e+02
9.100000000003001244e-01 4.435831094783260369e+02
9.300000000002996980e-01 4.542000366175718682e+02
9.500000000002992717e-01 4.634766118410707918e+02
9.700000000002988454e-01 4.738125122597799077e+02
9.900000000002984191e-01 4.840461041949991454e+02
1.010000000000297993e+00 4.944038323496224052e+02
1.030000000000297566e+00 5.054763346276086509e+02
1.050000000000297140e+00 5.151583525360455269e+02
1.070000000000296714e+00 5.251252311273801752e+02
1.090000000000296287e+00 5.354631975741982615e+02
1.110000000000295861e+00 5.462605760535180934e+02
1.130000000000295435e+00 5.562428900140625956e+02
1.150000000000295008e+00 5.657913954192407573e+02
1.170000000000294582e+00 5.754021204548221249e+02
1.190000000000294156e+00 5.855055350474546003e+02
1.210000000000293729e+00 5.954457226517789650e+02
1.230000000000293303e+00 6.052632769081958486e+02
1.250000000000292877e+00 6.140010865683666452e+02
1.270000000000292451e+00 6.249821443477076173e+02
1.290000000000292024e+00 6.344194993702809597e+02
1.310000000000291598e+00 6.425487742269360751e+02
1.330000000000291172e+00 6.514518653390442751e+02
1.350000000000290745e+00 6.612814980721157099e+02
1.370000000000290319e+00 6.693971417215298061e+02
1.390000000000289893e+00 6.773483500701281628e+02
1.410000000000289466e+00 6.869044937341129753e+02
1.430000000000289040e+00 6.941249602154119884e+02
1.450000000000288614e+00 7.031770867049983735e+02
1.470000000000288187e+00 7.112700242294401960e+02
1.490000000000287761e+00 7.187182484186313332e+02
1.510000000000287335e+00 7.282473260805168138e+02
1.530000000000286908e+00 7.332889875774268376e+02
1.550000000000286482e+00 7.408432650891169260e+02
1.570000000000286056e+00 7.485525318989493826e+02
1.590000000000285629e+00 7.547738496110603137e+02
1.610000000000285203e+00 7.627934477155237118e+02
1.630000000000284777e+00 7.695116728584655448e+02
1.650000000000284350e+00 7.789691407245975370e+02
1.670000000000283924e+00 7.829545367969872132e+02
1.690000000000283498e+00 7.930678105801454194e+02
1.710000000000283071e+00 8.000208018958758203e+02
1.730000000000282645e+00 8.031727326475117934e+02
1.750000000000282219e+00 8.028807548554800633e+02
1.770000000000281792e+00 7.971910691521405852e+02
1.790000000000281366e+00 7.976498448226253686e+02
1.810000000000280940e+00 7.965222659640621714e+02
1.830000000000280513e+00 7.994194714547891181e+02
1.850000000000280087e+00 7.985202134903737488e+02
1.870000000000279661e+00 7.993418714268049143e+02
1.890000000000279234e+00 8.014404545096952006e+02
1.910000000000278808e+00 8.043903014772459983e+02
1.930000000000278382e+00 8.060016819703616875e+02
1.950000000000277955e+00 8.089495420377204482e+02
1.970000000000277529e+00 8.058526644507633137e+02
1.990000000000277103e+00 8.024037988529378254e+02
2.010000000000276899e+00 8.008933676743145043e+02
2.030000000000276472e+00 7.968432731810960377e+02
2.050000000000276046e+00 7.965902991192011768e+02
2.070000000000275620e+00 7.937967609286165498e+02
2.090000000000275193e+00 7.931971252042388869e+02
2.110000000000274767e+00 7.916273289619247180e+02
2.130000000000274341e+00 7.877328408509991959e+02
2.150000000000273914e+00 7.858995782017350393e+02
2.170000000000273488e+00 7.807654533356762840e+02
2.190000000000273062e+00 7.760496872064662739e+02
2.210000000000272635e+00 7.707107330675753474e+02
2.230000000000272209e+00 7.623416035096815904e+02
2.250000000000271783e+00 7.559089275822839227e+02
2.270000000000271356e+00 7.445025500511785594e+02
2.290000000000270930e+00 7.389479713575910864e+02
2.310000000000270504e+00 7.318585026852341571e+02
2.330000000000270077e+00 7.270566192200017213e+02
2.350000000000269651e+00 7.212504993178869199e+02
2.370000000000269225e+00 7.158940715568855921e+02
2.390000000000268798e+00 7.124737574762325494e+02
2.410000000000268372e+00 7.037638475742468245e+02
2.430000000000267946e+00 6.959024688918424317e+02
2.450000000000267519e+00 6.887703434614450089e+02
2.470000000000267093e+00 6.797272252413923752e+02
2.490000000000266667e+00 6.747784891812052592e+02
2.510000000000266240e+00 6.682507882739876095e+02
2.530000000000265814e+00 6.587174960681110178e+02
2.550000000000265388e+00 6.498656248585051571e+02
2.570000000000264961e+00 6.425560849445664644e+02
2.590000000000264535e+00 6.353929344944086779e+02
2.610000000000264109e+00 6.271395837882107571e+02
2.630000000000263682e+00 6.206001381643814057e+02
2.650000000000263256e+00 6.129557270172872450e+02
2.670000000000262830e+00 6.060888804900604327e+02
2.690000000000262403e+00 5.981132274691974544e+02
2.710000000000261977e+00 5.911477289329334326e+02
2.730000000000261551e+00 5.843423340044786300e+02
2.750000000000261124e+00 5.767213179348756285e+02
2.770000000000260698e+00 5.699148420931421697e+02
2.790000000000260272e+00 5.625108285865144353e+02
2.810000000000259845e+00 5.557114056309309262e+02
2.830000000000259419e+00 5.486171270998692080e+02
2.850000000000258993e+00 5.418457655736095830e+02
2.870000000000258567e+00 5.354531063450085639e+02
2.890000000000258140e+00 5.290672439605872341e+02
2.910000000000257714e+00 5.212143361751949442e+02
2.930000000000257288e+00 5.156016436696032770e+02
2.950000000000256861e+00 5.080910618490059392e+02
2.970000000000256435e+00 5.011287950225912482e+02
2.990000000000256009e+00 4.935118585228544248e+02
3.010000000000255582e+00 4.864599494058874711e+02
3.030000000000255156e+00 4.795411464795803340e+02
3.050000000000254730e+00 4.740903809767256689e+02
3.070000000000254303e+00 4.670168534292535014e+02
3.090000000000253877e+00 4.609812098128738853e+02
3.110000000000253451e+00 4.546347544552264708e+02
3.130000000000253024e+00 4.489445007485742849e+02
3.150000000000252598e+00 4.427188366871711764e+02
3.170000000000252172e+00 4.380778776070804952e+02
3.190000000000251745e+00 4.322469183501451084e+02
3.210000000000251319e+00 4.264053356765308536e+02
3.230000000000250893e+00 4.218982404972152267e+02
3.250000000000250466e+00 4.154043401766616057e+02
3.270000000000250040e+00 4.112840604749767408e+02
3.290000000000249614e+00 4.020494878687118785e+02
3.310000000000249187e+00 3.944562851476783294e+02
3.330000000000248761e+00 3.878342952817509968e+02
3.350000000000248335e+00 3.786922151894934245e+02
3.370000000000247908e+00 3.724556641865877964e+02
3.390000000000247482e+00 3.659989538921730059e+02
3.410000000000247056e+00 3.609377658111640699e+02
3.430000000000246629e+00 3.550327557578418123e+02
3.450000000000246203e+00 3.498073553357268111e+02
3.470000000000245777e+00 3.450902481674362434e+02
3.490000000000245350e+00 3.395148346836110704e+02
3.510000000000244924e+00 3.341473234453307555e+02
3.530000000000244498e+00 3.294584314943268737e+02
3.550000000000244071e+00 3.250954928889046869e+02
3.570000000000243645e+00 3.211425803643118684e+02
3.590000000000243219e+00 3.171702432391609818e+02
3.610000000000242792e+00 3.125579954167621395e+02
3.630000000000242366e+00 3.077790586983736034e+02
3.650000000000241940e+00 3.020981704431872572e+02
3.670000000000241513e+00 2.969022169876475914e+02
3.690000000000241087e+00 2.924163293960842225e+02
3.710000000000240661e+00 2.879147695665642459e+02
3.730000000000240234e+00 2.834789126761968419e+02
3.750000000000239808e+00 2.786794687990406487e+02
3.770000000000239382e+00 2.763650503277623329e+02
3.790000000000238956e+00 2.721790689580848834e+02
3.810000000000238529e+00 2.680980770929152186e+02
3.830000000000238103e+00 2.642759971993402814e+02
3.850000000000237677e+00 2.605753612434546653e+02
3.870000000000237250e+00 2.558554316924737861e+02
3.890000000000236824e+00 2.522133847724124678e+02
3.910000000000236398e+00 2.480658228168811377e+02
3.930000000000235971e+00 2.442484115589966223e+02
3.950000000000235545e+00 2.410330667273285314e+02
3.970000000000235119e+00 2.370841458870715428e+02
3.990000000000234692e+00 2.340888452399747166e+02
4.010000000000234266e+00 2.298348308977760439e+02
4.030000000000233840e+00 2.258092857529242110e+02
4.050000000000233413e+00 2.225067912501065450e+02
4.070000000000232987e+00 2.192016493789568301e+02
4.090000000000232561e+00 2.154625491425834980e+02
4.110000000000232134e+00 2.131090502019734458e+02
4.130000000000231708e+00 2.101594841503577129e+02
4.150000000000231282e+00 2.072232501115998389e+02
4.170000000000230855e+00 2.046158441976178892e+02
4.190000000000230429e+00 2.021923682454795710e+02
4.210000000000230003e+00 1.987810503549576424e+02
4.230000000000229576e+00 1.969596261126486922e+02
4.250000000000229150e+00 1.938863798541546259e+02
4.270000000000228724e+00 1.899931692933643319e+02
4.290000000000228297e+00 1.869769103078592707e+02
4.310000000000227871e+00 1.837790330802551466e+02
4.330000000000227445e+00 1.806255043379091774e+02
4.350000000000227018e+00 1.767371890744588256e+02
4.370000000000226592e+00 1.743769688779527200e+02
4.390000000000226166e+00 1.719319444661889236e+02
4.410000000000225739e+00 1.696315877128474199e+02
4.430000000000225313e+00 1.675466934092611382e+02
4.450000000000224887e+00 1.653333670521112708e+02
4.470000000000224460e+00 1.631457194502642096e+02
4.490000000000224034e+00 1.615586546836029527e+02
4.510000000000223608e+00 1.586732207058403503e+02
4.530000000000223181e+00 1.566091590838582306e+02
4.550000000000222755e+00 1.544740527764826652e+02
4.570000000000222329e+00 1.519647941043174058e+02
4.590000000000221902e+00 1.501414555801338793e+02
4.610000000000221476e+00 1.482321581412193723e+02
4.630000000000221050e+00 1.467628472471858743e+02
4.650000000000220624e+00 1.446109084951213504e+02
4.670000000000220197e+00 1.421914459721366200e+02
4.690000000000219771e+00 1.404883816940030954e+02
4.710000000000219345e+00 1.379831082858610216e+02
4.730000000000218918e+00 1.359796294006994231e+02
4.750000000000218492e+00 1.338752239077340391e+02
4.770000000000218066e+00 1.322341744513782373e+02
4.790000000000217639e+00 1.307464460593733122e+02
4.810000000000217213e+00 1.288963985876978313e+02
4.830000000000216787e+00 1.270425944827023415e+02
4.850000000000216360e+00 1.261082710471237363e+02
4.870000000000215934e+00 1.249995644375125607e+02
4.890000000000215508e+00 1.231526446780764701e+02
4.910000000000215081e+00 1.220985899702199191e+02
4.930000000000214655e+00 1.204283471654031530e+02
4.950000000000214229e+00 1.190799283716919206e+02
4.970000000000213802e+00 1.177321219408590878e+02
4.990000000000213376e+00 1.163951145732627594e+02
5.010000000000212950e+00 1.146870683772107498e+02
5.030000000000212523e+00 1.128072566022344745e+02
5.050000000000212097e+00 1.111182428100317878e+02
5.070000000000211671e+00 1.099138602032003718e+02
5.090000000000211244e+00 1.075403873948067428e+02
5.110000000000210818e+00 1.060464641862827619e+02
5.130000000000210392e+00 1.045321095123343724e+02
5.150000000000209965e+00 1.028671993920349905e+02
5.170000000000209539e+00 1.013089522014356731e+02
5.190000000000209113e+00 9.996446682659554028e+01
5.210000000000208686e+00 9.880362594056829550e+01
5.230000000000208260e+00 9.756756090893289013e+01
5.250000000000207834e+00 9.612026757849662317e+01
5.270000000000207407e+00 9.458676442074727220e+01
5.290000000000206981e+00 9.389330820486205198e+01
5.310000000000206555e+00 9.265228898568409477e+01
5.330000000000206128e+00 9.124819710626329083e+01
5.350000000000205702e+00 9.025714387506263847e+01
5.370000000000205276e+00 8.943597111824192325e+01
5.390000000000204849e+00 8.842011352817252146e+01
5.410000000000204423e+00 8.738655389204750179e+01
5.430000000000203997e+00 8.669412361503287912e+01
5.450000000000203570e+00 8.583414428977575028e+01
5.470000000000203144e+00 8.496705795542956707e+01
5.490000000000202718e+00 8.376064043453175145e+01
5.510000000000202292e+00 8.277592232466356847e+01
5.530000000000201865e+00 8.214348041681442680e+01
5.550000000000201439e+00 8.121778646763823417e+01
5.570000000000201013e+00 8.074064636766171077e+01
5.590000000000200586e+00 7.893937766078059326e+01
5.610000000000200160e+00 7.847446885567588026e+01
5.630000000000199734e+00 7.782289233226698855e+01
5.650000000000199307e+00 7.660502832388733907e+01
5.670000000000198881e+00 7.506588731459768837e+01
5.690000000000198455e+00 7.422953635987921928e+01
5.710000000000198028e+00 7.331743006100880677e+01
5.730000000000197602e+00 7.244219771579231804e+01
5.750000000000197176e+00 7.120643790056234934e+01
5.770000000000196749e+00 7.027020404486745520e+01
5.790000000000196323e+00 6.914691226788882261e+01
5.810000000000195897e+00 6.863421194516871537e+01
5.830000000000195470e+00 6.802217240041491664e+01
5.850000000000195044e+00 6.704713788693715060e+01
5.870000000000194618e+00 6.650881883015249230e+01
5.890000000000194191e+00 6.573226856180042432e+01
5.910000000000193765e+00 6.508158192389500130e+01
5.930000000000193339e+00 6.445121409616810126e+01
5.950000000000192912e+00 6.388505037787373197e+01
5.970000000000192486e+00 6.308878527973284633e+01
5.990000000000192060e+00 6.229544537047901542e+01
6.010000000000191633e+00 6.231610742574795836e+01
6.030000000000191207e+00 6.102270850002862090e+01
6.050000000000190781e+00 6.043240095668014789e+01
6.070000000000190354e+00 6.005894073289364599e+01
6.090000000000189928e+00 5.950660641501783488e+01
6.110000000000189502e+00 5.931334727906604343e+01
6.130000000000189075e+00 5.818492480468411543e+01
6.150000000000188649e+00 5.778340637140328084e+01
6.170000000000188223e+00 5.695591372145311482e+01
6.190000000000187796e+00 5.634084062243332625e+01
6.210000000000187370e+00 5.558149799444146311e+01
6.230000000000186944e+00 5.462947441832789508e+01
6.250000000000186517e+00 5.388393687202640336e+01
6.270000000000186091e+00 5.331758723310253600e+01
6.290000000000185665e+00 5.293118817873519788e+01
6.310000000000185238e+00 5.210141992076508188e+01
6.330000000000184812e+00 5.150266153087329712e+01
6.350000000000184386e+00 5.083045449973957375e+01
6.370000000000183960e+00 5.061282325092837198e+01
6.390000000000183533e+00 5.032854466797241599e+01
6.410000000000183107e+00 4.975332823849577579e+01
6.430000000000182681e+00 4.960956276653639918e+01
6.450000000000182254e+00 4.849228318493964451e+01
6.470000000000181828e+00 4.842982882474805706e+01
6.490000000000181402e+00 4.796379649641062315e+01
6.510000000000180975e+00 4.760097624638595448e+01
6.530000000000180549e+00 4.683095408280860283e+01
6.550000000000180123e+00 4.648943104425386252e+01
6.570000000000179696e+00 4.605552763835859764e+01
6.590000000000179270e+00 4.573385123822463783e+01
6.610000000000178844e+00 4.515273232280997462e+01
6.630000000000178417e+00 4.481768189462423635e+01
6.650000000000177991e+00 4.433648719151029383e+01
6.670000000000177565e+00 4.416323444521844976e+01
6.690000000000177138e+00 4.367872547889358259e+01
6.710000000000176712e+00 4.317360062271976062e+01
6.730000000000176286e+00 4.257411865694518838e+01
6.750000000000175859e+00 4.215447168445946602e+01
6.770000000000175433e+00 4.164500355392300435e+01
6.790000000000175007e+00 4.141109406036863305e+01
6.810000000000174580e+00 4.068522756109437921e+01
6.830000000000174154e+00 4.000535428604364085e+01
6.850000000000173728e+00 3.991647617232071354e+01
6.870000000000173301e+00 3.948363489383315539e+01
6.890000000000172875e+00 3.919440412091702086e+01
6.910000000000172449e+00 3.880109912865536614e+01
6.930000000000172022e+00 3.861791400503457794e+01
6.950000000000171596e+00 3.812754630818394475e+01
6.970000000000171170e+00 3.798466983705461786e+01
6.990000000000170743e+00 3.750023512931561953e+01
7.010000000000170317e+00 3.734260236392604781e+01
7.030000000000169891e+00 3.708719430837068387e+01
7.050000000000169464e+00 3.654588366841296221e+01
7.070000000000169038e+00 3.620943606726189046e+01
7.090000000000168612e+00 3.594600304117759038e+01
7.110000000000168185e+00 3.578969515391442258e+01
7.130000000000167759e+00 3.542413753466877324e+01
7.150000000000167333e+00 3.521794863377141382e+01
7.170000000000166906e+00 3.458651115951604282e+01
7.190000000000166480e+00 3.415378174366460939e+01
7.210000000000166054e+00 3.384440937267299176e+01
7.230000000000165628e+00 3.381493850660196188e+01
7.250000000000165201e+00 3.332953669465849345e+01
7.270000000000164775e+00 3.289970507086020035e+01
7.290000000000164349e+00 3.256000354091165150e+01
7.310000000000163922e+00 3.224868514880487425e+01
7.330000000000163496e+00 3.225990590599057128e+01
7.350000000000163070e+00 3.175690339803892215e+01
7.370000000000162643e+00 3.153676948575451178e+01
7.390000000000162217e+00 3.140179495446323443e+01
7.410000000000161791e+00 3.126917205678975620e+01
7.430000000000161364e+00 3.081405911512073459e+01
7.450000000000160938e+00 3.073955506599320131e+01
7.470000000000160512e+00 3.033789970741190345e+01
7.490000000000160085e+00 3.026735063267707915e+01
7.510000000000159659e+00 2.964172513588344060e+01
7.530000000000159233e+00 2.962080634834103421e+01
7.550000000000158806e+00 2.943070235382630884e+01
7.570000000000158380e+00 2.898126862783200863e+01
7.590000000000157954e+00 2.891774457739812121e+01
7.610000000000157527e+00 2.837813744155231177e+01
7.630000000000157101e+00 2.810725672314626777e+01
7.650000000000156675e+00 2.796106153633393276e+01
7.670000000000156248e+00 2.782301118304790677e+01
7.690000000000155822e+00 2.747195249520035532e+01
7.710000000000155396e+00 2.715558881820036774e+01
7.730000000000154969e+00 2.702100894145215904e+01
7.750000000000154543e+00 2.695233077204374439e+01
7.770000000000154117e+00 2.651129571361104453e+01
7.790000000000153690e+00 2.655588798086803237e+01
7.810000000000153264e+00 2.608891126176304098e+01
7.830000000000152838e+00 2.605098217746783718e+01
7.850000000000152411e+00 2.565856202973876421e+01
7.870000000000151985e+00 2.574951440215027532e+01
7.890000000000151559e+00 2.533230804987703166e+01
7.910000000000151132e+00 2.508151494870336506e+01
7.930000000000150706e+00 2.495361716877497571e+01
7.950000000000150280e+00 2.481937846495177169e+01
7.970000000000149853e+00 2.441226026287331763e+01
