# Redshift		Merger Rate Density [Gpc^-3yr^-1]
1.000000000031931770e-02 6.398598726383373680e+00
3.000000000031888964e-02 6.656828407904216149e+00
5.000000000031846331e-02 7.088320663159764834e+00
7.000000000031804392e-02 7.489493143958063648e+00
9.000000000031761760e-02 7.762839919273460509e+00
1.100000000003171913e-01 8.283470465635435431e+00
1.300000000003167511e-01 8.709628839588384963e+00
1.500000000003163247e-01 9.161239491169220983e+00
1.700000000003158984e-01 9.698523745186596656e+00
1.900000000003154721e-01 1.012218008335788255e+01
2.100000000003150458e-01 1.066079426829753274e+01
2.300000000003146194e-01 1.109644376061473992e+01
2.500000000003141931e-01 1.148891441870288510e+01
2.700000000003137668e-01 1.204506227350155356e+01
2.900000000003133405e-01 1.250181200657835134e+01
3.100000000003129141e-01 1.301639458764939761e+01
3.300000000003124878e-01 1.345453252807119071e+01
3.500000000003120615e-01 1.386913713575174256e+01
3.700000000003116352e-01 1.444946091991181447e+01
3.900000000003112088e-01 1.505261155297592879e+01
4.100000000003107825e-01 1.555093879213482033e+01
4.300000000003103562e-01 1.629703817990569092e+01
4.500000000003099299e-01 1.672311414549610120e+01
4.700000000003095035e-01 1.735251282301561560e+01
4.900000000003090772e-01 1.805393538636553430e+01
5.100000000003086509e-01 1.831599047991274887e+01
5.300000000003082246e-01 1.893880471883222683e+01
5.500000000003077982e-01 1.951270442177005293e+01
5.700000000003073719e-01 1.987929222365857740e+01
5.900000000003069456e-01 2.059081546805520091e+01
6.100000000003065193e-01 2.100107528916705490e+01
6.300000000003060929e-01 2.157100718444450393e+01
6.500000000003056666e-01 2.217238234708628397e+01
6.700000000003052403e-01 2.286871819544657569e+01
6.900000000003048140e-01 2.325428932623294997e+01
7.100000000003043876e-01 2.423831926629398126e+01
7.300000000003039613e-01 2.455615778518296466e+01
7.500000000003035350e-01 2.518588739999532677e+01
7.700000000003031086e-01 2.579064419328243218e+01
7.900000000003026823e-01 2.627123104242054907e+01
8.100000000003022560e-01 2.706849617789876206e+01
8.300000000003018297e-01 2.753240034358347188e+01
8.500000000003014033e-01 2.809199258322996684e+01
8.700000000003009770e-01 2.880116905591818721e+01
8.900000000003005507e-01 2.949925058501012387e+01
9.100000000003001244e-01 2.991730784062596626e+01
9.300000000002996980e-01 3.076466808387514718e+01
9.500000000002992717e-01 3.143868099721438369e+01
9.700000000002988454e-01 3.209753082223346610e+01
9.900000000002984191e-01 3.281679652118345558e+01
1.010000000000297993e+00 3.342977178857790221e+01
1.030000000000297566e+00 3.406730749584612994e+01
1.050000000000297140e+00 3.484688275793296697e+01
1.070000000000296714e+00 3.565713990283490631e+01
1.090000000000296287e+00 3.617976432390404540e+01
1.110000000000295861e+00 3.684621290058695564e+01
1.130000000000295435e+00 3.761500777809503404e+01
1.150000000000295008e+00 3.831348696291625799e+01
1.170000000000294582e+00 3.901938204787581554e+01
1.190000000000294156e+00 3.949192290176404896e+01
1.210000000000293729e+00 4.038002110254497268e+01
1.230000000000293303e+00 4.146450953721848975e+01
1.250000000000292877e+00 4.187986422569711209e+01
1.270000000000292451e+00 4.271800262269150750e+01
1.290000000000292024e+00 4.328312162952155262e+01
1.310000000000291598e+00 4.372101585006117119e+01
1.330000000000291172e+00 4.438474290203280503e+01
1.350000000000290745e+00 4.484950995250630257e+01
1.370000000000290319e+00 4.544763914494824064e+01
1.390000000000289893e+00 4.627479211337559661e+01
1.410000000000289466e+00 4.714766430143276210e+01
1.430000000000289040e+00 4.745115065908327523e+01
1.450000000000288614e+00 4.797277681960649431e+01
1.470000000000288187e+00 4.814198370706558450e+01
1.490000000000287761e+00 4.903076878229905589e+01
1.510000000000287335e+00 4.951788429300452066e+01
1.530000000000286908e+00 5.021324201698526224e+01
1.550000000000286482e+00 4.994042199801576487e+01
1.570000000000286056e+00 5.081152890487715013e+01
1.590000000000285629e+00 5.138243625119302038e+01
1.610000000000285203e+00 5.176743193423888556e+01
1.630000000000284777e+00 5.228756177429485064e+01
1.650000000000284350e+00 5.234308351128386505e+01
1.670000000000283924e+00 5.269974051976622320e+01
1.690000000000283498e+00 5.268037324203228167e+01
1.710000000000283071e+00 5.350669262768633416e+01
1.730000000000282645e+00 5.344607952919508875e+01
1.750000000000282219e+00 5.398782377138115862e+01
1.770000000000281792e+00 5.458054457383079239e+01
1.790000000000281366e+00 5.474263380380244115e+01
1.810000000000280940e+00 5.525860232955304951e+01
1.830000000000280513e+00 5.544332990015499263e+01
1.850000000000280087e+00 5.550532354310246319e+01
1.870000000000279661e+00 5.556890668013772228e+01
1.890000000000279234e+00 5.650725203437038857e+01
1.910000000000278808e+00 5.560337185232615553e+01
1.930000000000278382e+00 5.552877699532805167e+01
1.950000000000277955e+00 5.572472853108433810e+01
1.970000000000277529e+00 5.513245538952379832e+01
1.990000000000277103e+00 5.571881298090863055e+01
2.010000000000276899e+00 5.584240067714232225e+01
2.030000000000276472e+00 5.566106257764077725e+01
2.050000000000276046e+00 5.547534613456170405e+01
2.070000000000275620e+00 5.463656037102882834e+01
2.090000000000275193e+00 5.462992161731474994e+01
2.110000000000274767e+00 5.389346578994091885e+01
2.130000000000274341e+00 5.345271471167173161e+01
2.150000000000273914e+00 5.382740837048210381e+01
2.170000000000273488e+00 5.296300060839449486e+01
2.190000000000273062e+00 5.274123794617079852e+01
2.210000000000272635e+00 5.184649339897766396e+01
2.230000000000272209e+00 5.178628658788870354e+01
2.250000000000271783e+00 5.133721757578202727e+01
2.270000000000271356e+00 5.159281710028257351e+01
2.290000000000270930e+00 5.140419699565944001e+01
2.310000000000270504e+00 5.081139072916715094e+01
2.330000000000270077e+00 5.002443523743418297e+01
2.350000000000269651e+00 5.060364407205920401e+01
2.370000000000269225e+00 4.911020028913845437e+01
2.390000000000268798e+00 4.846188339308857707e+01
2.410000000000268372e+00 4.834678028405816264e+01
2.430000000000267946e+00 4.768984338202367468e+01
2.450000000000267519e+00 4.775258637056009547e+01
2.470000000000267093e+00 4.701807307628672561e+01
2.490000000000266667e+00 4.631614096047681528e+01
2.510000000000266240e+00 4.703564003338351540e+01
2.530000000000265814e+00 4.664304850676869307e+01
2.550000000000265388e+00 4.561955417303685323e+01
2.570000000000264961e+00 4.499493957866870630e+01
2.590000000000264535e+00 4.388969927839666241e+01
2.610000000000264109e+00 4.356957512541330857e+01
2.630000000000263682e+00 4.305258840720513547e+01
2.650000000000263256e+00 4.205246587481506282e+01
2.670000000000262830e+00 4.172241599604698337e+01
2.690000000000262403e+00 4.203779927074101153e+01
2.710000000000261977e+00 4.038243812547764122e+01
2.730000000000261551e+00 4.008101809278922190e+01
2.750000000000261124e+00 3.979940650854926076e+01
2.770000000000260698e+00 3.896926566541146286e+01
2.790000000000260272e+00 3.859991464548232898e+01
2.810000000000259845e+00 3.793133000702620450e+01
2.830000000000259419e+00 3.807069545187432880e+01
2.850000000000258993e+00 3.696218409747239519e+01
2.870000000000258567e+00 3.635599698663698831e+01
2.890000000000258140e+00 3.648238556455048354e+01
2.910000000000257714e+00 3.565012151848993938e+01
2.930000000000257288e+00 3.534423362862766282e+01
2.950000000000256861e+00 3.520373721344469686e+01
2.970000000000256435e+00 3.455736318565668341e+01
2.990000000000256009e+00 3.396552304813683065e+01
3.010000000000255582e+00 3.333278807616792250e+01
3.030000000000255156e+00 3.312490618385992747e+01
3.050000000000254730e+00 3.256704116666250570e+01
3.070000000000254303e+00 3.223207166138984547e+01
3.090000000000253877e+00 3.175601083526968438e+01
3.110000000000253451e+00 3.156556634202835099e+01
3.130000000000253024e+00 3.108178224179906479e+01
3.150000000000252598e+00 3.058798425447168867e+01
3.170000000000252172e+00 3.000436392238527716e+01
3.190000000000251745e+00 2.991511427338046403e+01
3.210000000000251319e+00 2.930880758308228096e+01
3.230000000000250893e+00 2.912274500904553065e+01
3.250000000000250466e+00 2.846574420204662559e+01
3.270000000000250040e+00 2.862716502407656094e+01
3.290000000000249614e+00 2.780599546863575000e+01
3.310000000000249187e+00 2.749830638761840618e+01
3.330000000000248761e+00 2.761022122499334586e+01
3.350000000000248335e+00 2.676750622404921032e+01
3.370000000000247908e+00 2.699677737110241083e+01
3.390000000000247482e+00 2.641810036532022821e+01
3.410000000000247056e+00 2.640599705452908097e+01
3.430000000000246629e+00 2.598049298057525291e+01
3.450000000000246203e+00 2.550007783985681442e+01
3.470000000000245777e+00 2.531652425545666318e+01
3.490000000000245350e+00 2.503556314037797748e+01
3.510000000000244924e+00 2.497318343055217937e+01
3.530000000000244498e+00 2.443565553130013512e+01
3.550000000000244071e+00 2.429498416774015013e+01
3.570000000000243645e+00 2.361688061586665555e+01
3.590000000000243219e+00 2.345979944838222764e+01
3.610000000000242792e+00 2.287381624983896344e+01
3.630000000000242366e+00 2.315242772032541652e+01
3.650000000000241940e+00 2.237631446100182231e+01
3.670000000000241513e+00 2.219119355273534211e+01
3.690000000000241087e+00 2.177829753403063151e+01
3.710000000000240661e+00 2.166040299569001348e+01
3.730000000000240234e+00 2.165544578894056471e+01
3.750000000000239808e+00 2.122069783259399145e+01
3.770000000000239382e+00 2.089190867454311729e+01
3.790000000000238956e+00 2.082669167237153829e+01
3.810000000000238529e+00 2.038584985231075564e+01
3.830000000000238103e+00 2.039327797135931419e+01
3.850000000000237677e+00 1.991000133472891420e+01
3.870000000000237250e+00 1.974771284096369328e+01
3.890000000000236824e+00 1.922139278953437014e+01
3.910000000000236398e+00 1.927598641339782759e+01
3.930000000000235971e+00 1.886121946770065705e+01
3.950000000000235545e+00 1.905706926056281958e+01
3.970000000000235119e+00 1.862580564195017985e+01
3.990000000000234692e+00 1.836042465266236334e+01
4.010000000000234266e+00 1.798951172693025313e+01
4.030000000000233840e+00 1.798794755128338352e+01
4.050000000000233413e+00 1.765831140796184329e+01
4.070000000000232987e+00 1.769336210604889104e+01
4.090000000000232561e+00 1.726144354425120397e+01
4.110000000000232134e+00 1.727876087850115994e+01
4.130000000000231708e+00 1.716229967095397768e+01
4.150000000000231282e+00 1.694741062144851540e+01
4.170000000000230855e+00 1.659467183857968919e+01
4.190000000000230429e+00 1.661525514190066488e+01
4.210000000000230003e+00 1.634598920317288417e+01
4.230000000000229576e+00 1.622057793269077308e+01
4.250000000000229150e+00 1.622249895548359788e+01
4.270000000000228724e+00 1.630160867315153439e+01
4.290000000000228297e+00 1.553564254020717961e+01
4.310000000000227871e+00 1.574831677890185588e+01
4.330000000000227445e+00 1.544252337157881350e+01
4.350000000000227018e+00 1.525129406686329858e+01
4.370000000000226592e+00 1.485910381514085721e+01
4.390000000000226166e+00 1.522425608199081992e+01
4.410000000000225739e+00 1.507708318556477600e+01
4.430000000000225313e+00 1.469190114766408151e+01
4.450000000000224887e+00 1.426238039271741975e+01
4.470000000000224460e+00 1.429457414378652658e+01
4.490000000000224034e+00 1.419465146926217614e+01
4.510000000000223608e+00 1.413973469835755026e+01
4.530000000000223181e+00 1.411744941736158054e+01
4.550000000000222755e+00 1.366360277286460345e+01
4.570000000000222329e+00 1.363506989161422744e+01
4.590000000000221902e+00 1.322452826768667400e+01
4.610000000000221476e+00 1.317275649865290710e+01
4.630000000000221050e+00 1.316257999720139971e+01
4.650000000000220624e+00 1.280542622340184167e+01
4.670000000000220197e+00 1.279900792432828283e+01
4.690000000000219771e+00 1.270094245730673954e+01
4.710000000000219345e+00 1.235295306078681499e+01
4.730000000000218918e+00 1.220372850778440643e+01
4.750000000000218492e+00 1.213682370021820489e+01
4.770000000000218066e+00 1.203856065978227186e+01
4.790000000000217639e+00 1.191181017783486418e+01
4.810000000000217213e+00 1.197738997596994004e+01
4.830000000000216787e+00 1.145426358018918833e+01
4.850000000000216360e+00 1.147576552751323575e+01
4.870000000000215934e+00 1.148753134820489485e+01
4.890000000000215508e+00 1.115226161783206749e+01
4.910000000000215081e+00 1.094280478310111704e+01
4.930000000000214655e+00 1.126253755832886050e+01
4.950000000000214229e+00 1.093464278438746717e+01
4.970000000000213802e+00 1.078338286531623247e+01
4.990000000000213376e+00 1.064702462552097906e+01
5.010000000000212950e+00 1.051211900659582987e+01
5.030000000000212523e+00 1.050833923555523874e+01
5.050000000000212097e+00 1.031921147247058457e+01
5.070000000000211671e+00 1.045476717109764131e+01
5.090000000000211244e+00 1.022847574531788162e+01
5.110000000000210818e+00 1.001457384518687377e+01
5.130000000000210392e+00 9.900810147713617226e+00
5.150000000000209965e+00 9.927773080615180490e+00
5.170000000000209539e+00 9.933327734010044097e+00
5.190000000000209113e+00 9.683779541914656619e+00
5.210000000000208686e+00 9.685608038261760200e+00
5.230000000000208260e+00 9.451585671137053168e+00
5.250000000000207834e+00 9.488375782742497933e+00
5.270000000000207407e+00 9.296227790582090478e+00
5.290000000000206981e+00 9.439123268684864954e+00
5.310000000000206555e+00 9.157111991912758597e+00
5.330000000000206128e+00 8.984118011193984898e+00
5.350000000000205702e+00 8.852011677094727915e+00
5.370000000000205276e+00 9.006442932380716471e+00
5.390000000000204849e+00 8.634211282170870305e+00
5.410000000000204423e+00 8.639402444409931547e+00
5.430000000000203997e+00 8.699424840282341975e+00
5.450000000000203570e+00 8.444816120819748306e+00
5.470000000000203144e+00 8.471025577180101962e+00
5.490000000000202718e+00 8.466725096969447861e+00
5.510000000000202292e+00 8.331320747479464828e+00
5.530000000000201865e+00 8.096661321498952901e+00
5.550000000000201439e+00 8.208555398589211904e+00
5.570000000000201013e+00 8.026620870371559135e+00
5.590000000000200586e+00 8.029313034015730821e+00
5.610000000000200160e+00 7.873760903598693517e+00
5.630000000000199734e+00 7.854210897607328157e+00
5.650000000000199307e+00 7.629465484392748742e+00
5.670000000000198881e+00 7.663245196479173238e+00
5.690000000000198455e+00 7.466225888418372314e+00
5.710000000000198028e+00 7.504411498013558557e+00
5.730000000000197602e+00 7.326692406155900450e+00
5.750000000000197176e+00 7.292365501824605190e+00
5.770000000000196749e+00 7.152577474638142974e+00
5.790000000000196323e+00 7.000846855163392668e+00
5.810000000000195897e+00 7.096870147255187611e+00
5.830000000000195470e+00 6.933715978040914329e+00
5.850000000000195044e+00 6.889328123693700512e+00
5.870000000000194618e+00 6.839246605713625193e+00
5.890000000000194191e+00 6.646613888305694218e+00
5.910000000000193765e+00 6.715886305295245329e+00
5.930000000000193339e+00 6.571517139846584143e+00
5.950000000000192912e+00 6.531079187156398014e+00
5.970000000000192486e+00 6.473956531041916485e+00
5.990000000000192060e+00 6.299097982120574812e+00
6.010000000000191633e+00 6.230959044255791390e+00
6.030000000000191207e+00 6.099201121527571878e+00
6.050000000000190781e+00 6.276740259351854867e+00
6.070000000000190354e+00 5.859963249693713294e+00
6.090000000000189928e+00 5.829343370804497049e+00
6.110000000000189502e+00 5.864071358127763922e+00
6.130000000000189075e+00 5.674673776872761088e+00
6.150000000000188649e+00 5.673874098884819084e+00
6.170000000000188223e+00 5.554774151966372919e+00
6.190000000000187796e+00 5.612706575697644418e+00
6.210000000000187370e+00 5.565092549882514561e+00
6.230000000000186944e+00 5.496529785281299318e+00
6.250000000000186517e+00 5.259369602878035010e+00
6.270000000000186091e+00 5.222835652707026988e+00
6.290000000000185665e+00 5.212266193319468499e+00
6.310000000000185238e+00 5.019194931886060473e+00
6.330000000000184812e+00 4.969803909114310692e+00
6.350000000000184386e+00 4.759841671774767136e+00
6.370000000000183960e+00 4.750162640184255380e+00
6.390000000000183533e+00 4.801277934395972835e+00
6.410000000000183107e+00 4.632623465568347143e+00
6.430000000000182681e+00 4.581442360168054506e+00
6.450000000000182254e+00 4.455093653153690880e+00
6.470000000000181828e+00 4.372028870330490591e+00
6.490000000000181402e+00 4.229395943148711368e+00
6.510000000000180975e+00 4.152755157927855656e+00
6.530000000000180549e+00 4.189063146670245708e+00
6.550000000000180123e+00 4.056706428678711340e+00
6.570000000000179696e+00 3.825654199534213262e+00
6.590000000000179270e+00 3.864760540298886049e+00
6.610000000000178844e+00 3.788618633947312908e+00
6.630000000000178417e+00 3.766725549055328415e+00
6.650000000000177991e+00 3.521612373589937395e+00
6.670000000000177565e+00 3.549358447667183114e+00
6.690000000000177138e+00 3.452003647260603270e+00
6.710000000000176712e+00 3.444448950653906216e+00
6.730000000000176286e+00 3.299694395809455116e+00
6.750000000000175859e+00 3.250584882353257488e+00
6.770000000000175433e+00 3.146305730031284664e+00
6.790000000000175007e+00 3.099032466858978818e+00
6.810000000000174580e+00 3.049002274964375037e+00
6.830000000000174154e+00 2.983002553690164316e+00
6.850000000000173728e+00 2.939482397040062089e+00
6.870000000000173301e+00 2.871091599211739620e+00
6.890000000000172875e+00 2.840289349646359707e+00
6.910000000000172449e+00 2.718939619490340576e+00
6.930000000000172022e+00 2.681057125700269328e+00
6.950000000000171596e+00 2.654988369684481597e+00
6.970000000000171170e+00 2.614182250336142932e+00
6.990000000000170743e+00 2.554630255157738894e+00
7.010000000000170317e+00 2.407568200317053542e+00
7.030000000000169891e+00 2.424478576388457984e+00
7.050000000000169464e+00 2.358153448757601023e+00
7.070000000000169038e+00 2.330568767971258115e+00
7.090000000000168612e+00 2.153974823379684267e+00
7.110000000000168185e+00 2.106116614808471343e+00
7.130000000000167759e+00 2.133711789664621161e+00
7.150000000000167333e+00 2.027986492286807607e+00
7.170000000000166906e+00 2.064147662985946319e+00
7.190000000000166480e+00 1.946322402043336952e+00
7.210000000000166054e+00 1.965462928047045921e+00
7.230000000000165628e+00 1.862909173903758875e+00
7.250000000000165201e+00 1.821906112984626347e+00
7.270000000000164775e+00 1.852198988776136535e+00
7.290000000000164349e+00 1.759734853512715969e+00
7.310000000000163922e+00 1.762477133566029863e+00
7.330000000000163496e+00 1.704477491337219597e+00
7.350000000000163070e+00 1.742030301826890781e+00
7.370000000000162643e+00 1.667911587135267437e+00
7.390000000000162217e+00 1.717918795080365824e+00
7.410000000000161791e+00 1.540180131599237390e+00
7.430000000000161364e+00 1.558126161716383962e+00
7.450000000000160938e+00 1.553654678143840728e+00
7.470000000000160512e+00 1.501956480400796767e+00
7.490000000000160085e+00 1.470089446222436758e+00
7.510000000000159659e+00 1.369129868135653405e+00
7.530000000000159233e+00 1.443693961876446163e+00
7.550000000000158806e+00 1.395391954169759696e+00
7.570000000000158380e+00 1.325343532215817355e+00
7.590000000000157954e+00 1.358303581555241113e+00
7.610000000000157527e+00 1.264905049111850532e+00
7.630000000000157101e+00 1.297487728616274483e+00
7.650000000000156675e+00 1.213886486400699738e+00
7.670000000000156248e+00 1.190091078965836102e+00
7.690000000000155822e+00 1.236235783512433573e+00
7.710000000000155396e+00 1.173301933769511418e+00
7.730000000000154969e+00 1.157828050609127191e+00
7.750000000000154543e+00 1.133683078463892269e+00
7.770000000000154117e+00 1.117769908597739281e+00
7.790000000000153690e+00 1.105232930573316841e+00
7.810000000000153264e+00 1.126119164155326979e+00
7.830000000000152838e+00 1.027665846557708207e+00
7.850000000000152411e+00 9.902698555421962645e-01
7.870000000000151985e+00 9.747183100610430362e-01
7.890000000000151559e+00 9.510258393232983165e-01
7.910000000000151132e+00 9.115085767491246660e-01
7.930000000000150706e+00 9.277389002558069642e-01
7.950000000000150280e+00 8.771256801850879636e-01
7.970000000000149853e+00 8.637902983304294180e-01
