# Redshift		Merger Rate Density [Gpc^-3yr^-1]
1.000000000031931770e-02 7.185258638546682164e+01
3.000000000031888964e-02 7.556193170382370283e+01
5.000000000031846331e-02 7.919813865411187237e+01
7.000000000031804392e-02 8.287457764360823376e+01
9.000000000031761760e-02 8.703971378300629169e+01
1.100000000003171913e-01 9.083387784430219369e+01
1.300000000003167511e-01 9.498118003763676143e+01
1.500000000003163247e-01 9.902116704682248383e+01
1.700000000003158984e-01 1.035589958088509519e+02
1.900000000003154721e-01 1.078763989587411487e+02
2.100000000003150458e-01 1.125092172281806739e+02
2.300000000003146194e-01 1.170706977403227711e+02
2.500000000003141931e-01 1.218900535641760001e+02
2.700000000003137668e-01 1.268126570442654781e+02
2.900000000003133405e-01 1.320488670684998169e+02
3.100000000003129141e-01 1.371826340261505095e+02
3.300000000003124878e-01 1.424114109435140847e+02
3.500000000003120615e-01 1.478432000361518135e+02
3.700000000003116352e-01 1.532765371056188144e+02
3.900000000003112088e-01 1.589435891151730118e+02
4.100000000003107825e-01 1.647428148812094832e+02
4.300000000003103562e-01 1.705183714383143467e+02
4.500000000003099299e-01 1.766230165085151498e+02
4.700000000003095035e-01 1.827353511688648666e+02
4.900000000003090772e-01 1.890386874506607739e+02
5.100000000003086509e-01 1.950959229751795760e+02
5.300000000003082246e-01 2.018444236925562336e+02
5.500000000003077982e-01 2.082990812853877856e+02
5.700000000003073719e-01 2.152486329368904308e+02
5.900000000003069456e-01 2.214664773525706494e+02
6.100000000003065193e-01 2.284355405511161052e+02
6.300000000003060929e-01 2.354041318662435174e+02
6.500000000003056666e-01 2.428663845559505035e+02
6.700000000003052403e-01 2.496081645665251472e+02
6.900000000003048140e-01 2.569557500852248495e+02
7.100000000003043876e-01 2.640844972566737283e+02
7.300000000003039613e-01 2.718768895530658938e+02
7.500000000003035350e-01 2.789641610050811664e+02
7.700000000003031086e-01 2.867614639954871905e+02
7.900000000003026823e-01 2.942130053460089130e+02
8.100000000003022560e-01 3.023193530775010345e+02
8.300000000003018297e-01 3.100675543888099241e+02
8.500000000003014033e-01 3.177361865700365229e+02
8.700000000003009770e-01 3.259617986144035058e+02
8.900000000003005507e-01 3.337617631774059532e+02
9.100000000003001244e-01 3.419820767395980852e+02
9.300000000002996980e-01 3.500676722070964502e+02
9.500000000002992717e-01 3.581685300337506419e+02
9.700000000002988454e-01 3.665912956806363923e+02
9.900000000002984191e-01 3.746525911978141039e+02
1.010000000000297993e+00 3.833208079954424647e+02
1.030000000000297566e+00 3.911058845082963558e+02
1.050000000000297140e+00 3.997446809615622101e+02
1.070000000000296714e+00 4.076232737581202059e+02
1.090000000000296287e+00 4.166871829858253591e+02
1.110000000000295861e+00 4.243471299758948021e+02
1.130000000000295435e+00 4.329867557822531126e+02
1.150000000000295008e+00 4.415185710929285960e+02
1.170000000000294582e+00 4.492712096933673251e+02
1.190000000000294156e+00 4.574887680708354196e+02
1.210000000000293729e+00 4.653287742117605035e+02
1.230000000000293303e+00 4.740047787495514058e+02
1.250000000000292877e+00 4.818314914541508642e+02
1.270000000000292451e+00 4.895404443254281546e+02
1.290000000000292024e+00 4.977760565193786988e+02
1.310000000000291598e+00 5.048561001093785308e+02
1.330000000000291172e+00 5.131682841019447778e+02
1.350000000000290745e+00 5.200657507836466493e+02
1.370000000000290319e+00 5.278423046553851918e+02
1.390000000000289893e+00 5.348690387152496442e+02
1.410000000000289466e+00 5.423386248174891762e+02
1.430000000000289040e+00 5.493890104934133660e+02
1.450000000000288614e+00 5.561963240684808625e+02
1.470000000000288187e+00 5.626654842571845165e+02
1.490000000000287761e+00 5.694882210580902893e+02
1.510000000000287335e+00 5.767960143668772162e+02
1.530000000000286908e+00 5.826252618669529966e+02
1.550000000000286482e+00 5.878457388140673174e+02
1.570000000000286056e+00 5.948499575026979755e+02
1.590000000000285629e+00 6.019121422052874095e+02
1.610000000000285203e+00 6.085238020155383083e+02
1.630000000000284777e+00 6.158639130152301959e+02
1.650000000000284350e+00 6.269387740602834356e+02
1.670000000000283924e+00 6.368557857042709429e+02
1.690000000000283498e+00 6.469330254387218702e+02
1.710000000000283071e+00 6.468568034224757639e+02
1.730000000000282645e+00 6.446536765474503454e+02
1.750000000000282219e+00 6.455478842807004867e+02
1.770000000000281792e+00 6.467513829904299882e+02
1.790000000000281366e+00 6.467138794424434991e+02
1.810000000000280940e+00 6.469475362775904159e+02
1.830000000000280513e+00 6.467038152722423092e+02
1.850000000000280087e+00 6.482912689853553729e+02
1.870000000000279661e+00 6.530460143156261665e+02
1.890000000000279234e+00 6.549850794269015068e+02
1.910000000000278808e+00 6.536814387446711407e+02
1.930000000000278382e+00 6.525553780760959626e+02
1.950000000000277955e+00 6.525735762798906308e+02
1.970000000000277529e+00 6.525961995007349969e+02
1.990000000000277103e+00 6.584176749511237858e+02
2.010000000000276899e+00 6.575350472592100459e+02
2.030000000000276472e+00 6.587274106677314194e+02
2.050000000000276046e+00 6.571508037298430054e+02
2.070000000000275620e+00 6.603562594150090490e+02
2.090000000000275193e+00 6.605527067459145201e+02
2.110000000000274767e+00 6.636707823632939380e+02
2.130000000000274341e+00 6.674561871750545379e+02
2.150000000000273914e+00 6.608009704943257248e+02
2.170000000000273488e+00 6.543283471156329369e+02
2.190000000000273062e+00 6.440918161332099316e+02
2.210000000000272635e+00 6.353600038900418667e+02
2.230000000000272209e+00 6.295572441160517201e+02
2.250000000000271783e+00 6.234021397995921916e+02
2.270000000000271356e+00 6.159302755853409508e+02
2.290000000000270930e+00 6.101913906839117772e+02
2.310000000000270504e+00 6.043498051908313755e+02
2.330000000000270077e+00 5.999831101102646471e+02
2.350000000000269651e+00 5.956988263872968901e+02
2.370000000000269225e+00 5.907818002705967046e+02
2.390000000000268798e+00 5.856783245195966856e+02
2.410000000000268372e+00 5.813464970952491058e+02
2.430000000000267946e+00 5.751154710896074675e+02
2.450000000000267519e+00 5.710048355530159370e+02
2.470000000000267093e+00 5.650949141623848391e+02
2.490000000000266667e+00 5.604715080609440747e+02
2.510000000000266240e+00 5.549520306655410877e+02
2.530000000000265814e+00 5.499344866782797681e+02
2.550000000000265388e+00 5.441063513381349139e+02
2.570000000000264961e+00 5.388445753451840119e+02
2.590000000000264535e+00 5.329951035982625172e+02
2.610000000000264109e+00 5.275561480212235210e+02
2.630000000000263682e+00 5.219592160608239055e+02
2.650000000000263256e+00 5.162874267221492346e+02
2.670000000000262830e+00 5.103766293934262990e+02
2.690000000000262403e+00 5.049390109608282842e+02
2.710000000000261977e+00 4.992637596383936511e+02
2.730000000000261551e+00 4.933444132492653580e+02
2.750000000000261124e+00 4.877033897507823781e+02
2.770000000000260698e+00 4.820661288600848593e+02
2.790000000000260272e+00 4.764282137841321401e+02
2.810000000000259845e+00 4.708404595770506376e+02
2.830000000000259419e+00 4.655139550829244399e+02
2.850000000000258993e+00 4.594185457811202582e+02
2.870000000000258567e+00 4.546140960356401024e+02
2.890000000000258140e+00 4.487584521222501621e+02
2.910000000000257714e+00 4.433062679252527687e+02
2.930000000000257288e+00 4.378132855801762275e+02
2.950000000000256861e+00 4.326166982903597500e+02
2.970000000000256435e+00 4.270860195682037670e+02
2.990000000000256009e+00 4.213808840050830327e+02
3.010000000000255582e+00 4.155229444027137333e+02
3.030000000000255156e+00 4.102371795340416725e+02
3.050000000000254730e+00 4.044412393006116986e+02
3.070000000000254303e+00 3.996254568922920498e+02
3.090000000000253877e+00 3.950401627648315070e+02
3.110000000000253451e+00 3.901676606661022220e+02
3.130000000000253024e+00 3.853417363499878547e+02
3.150000000000252598e+00 3.810548855384039939e+02
3.170000000000252172e+00 3.780318008653281936e+02
3.190000000000251745e+00 3.737955744752530336e+02
3.210000000000251319e+00 3.696242070854966641e+02
3.230000000000250893e+00 3.654453893477048609e+02
3.250000000000250466e+00 3.600825666884787779e+02
3.270000000000250040e+00 3.510947489715858296e+02
3.290000000000249614e+00 3.448759607302929453e+02
3.310000000000249187e+00 3.395942644987694052e+02
3.330000000000248761e+00 3.338034010519625667e+02
3.350000000000248335e+00 3.292469008782990159e+02
3.370000000000247908e+00 3.236322102200329596e+02
3.390000000000247482e+00 3.183819010061670269e+02
3.410000000000247056e+00 3.134810353595270271e+02
3.430000000000246629e+00 3.094790348261667532e+02
3.450000000000246203e+00 3.047857195101856860e+02
3.470000000000245777e+00 3.012549089102943185e+02
3.490000000000245350e+00 3.012692889027697447e+02
3.510000000000244924e+00 2.974658794796193320e+02
3.530000000000244498e+00 2.945517052376177389e+02
3.550000000000244071e+00 2.896540131370749691e+02
3.570000000000243645e+00 2.828237436524233885e+02
3.590000000000243219e+00 2.770455595062723546e+02
3.610000000000242792e+00 2.718893363141668829e+02
3.630000000000242366e+00 2.681480464750937358e+02
3.650000000000241940e+00 2.639357251627194501e+02
3.670000000000241513e+00 2.617592293068123581e+02
3.690000000000241087e+00 2.587166288703493251e+02
3.710000000000240661e+00 2.553251882083661428e+02
3.730000000000240234e+00 2.511300954127571572e+02
3.750000000000239808e+00 2.478621546185878231e+02
3.770000000000239382e+00 2.439875267539989920e+02
3.790000000000238956e+00 2.412762794793574415e+02
3.810000000000238529e+00 2.383279735114016944e+02
3.830000000000238103e+00 2.346590623997855687e+02
3.850000000000237677e+00 2.314523709875180941e+02
3.870000000000237250e+00 2.292397141242163059e+02
3.890000000000236824e+00 2.270083604745020978e+02
3.910000000000236398e+00 2.228786201298917433e+02
3.930000000000235971e+00 2.183693877123600942e+02
3.950000000000235545e+00 2.144861070801426592e+02
3.970000000000235119e+00 2.103894492101662195e+02
3.990000000000234692e+00 2.074679887697643039e+02
4.010000000000234266e+00 2.043997865978588209e+02
4.030000000000233840e+00 2.012332905969811634e+02
4.050000000000233413e+00 1.985895172543544618e+02
4.070000000000232987e+00 1.956117019002332427e+02
4.090000000000232561e+00 1.933697725249443522e+02
4.110000000000232134e+00 1.909721689319413827e+02
4.130000000000231708e+00 1.887839783328881822e+02
4.150000000000231282e+00 1.864939796151770963e+02
4.170000000000230855e+00 1.835870881720310877e+02
4.190000000000230429e+00 1.816002117363824766e+02
4.210000000000230003e+00 1.787397060546626051e+02
4.230000000000229576e+00 1.762238939994265081e+02
4.250000000000229150e+00 1.729514007205314954e+02
4.270000000000228724e+00 1.705722129629496351e+02
4.290000000000228297e+00 1.679673996343701674e+02
4.310000000000227871e+00 1.654157375750618257e+02
4.330000000000227445e+00 1.634379860090652414e+02
4.350000000000227018e+00 1.614761273698811692e+02
4.370000000000226592e+00 1.589401617214842588e+02
4.390000000000226166e+00 1.569135708250539949e+02
4.410000000000225739e+00 1.549463946679458672e+02
4.430000000000225313e+00 1.537193101351950872e+02
4.450000000000224887e+00 1.518469913491248349e+02
4.470000000000224460e+00 1.498076025516526215e+02
4.490000000000224034e+00 1.486624479036358650e+02
4.510000000000223608e+00 1.501516573494250792e+02
4.530000000000223181e+00 1.484941553500716509e+02
4.550000000000222755e+00 1.467280845190737750e+02
4.570000000000222329e+00 1.445149297552910070e+02
4.590000000000221902e+00 1.428844202051511161e+02
4.610000000000221476e+00 1.391355671412613049e+02
4.630000000000221050e+00 1.363770265326756999e+02
4.650000000000220624e+00 1.333169852504418884e+02
4.670000000000220197e+00 1.318690153757924577e+02
4.690000000000219771e+00 1.296997874563060122e+02
4.710000000000219345e+00 1.279513198190992824e+02
4.730000000000218918e+00 1.270220586059497805e+02
4.750000000000218492e+00 1.255570824424222707e+02
4.770000000000218066e+00 1.244028636837268920e+02
4.790000000000217639e+00 1.224773028635795526e+02
4.810000000000217213e+00 1.211070082120528468e+02
4.830000000000216787e+00 1.195799998129609492e+02
4.850000000000216360e+00 1.181995360766274104e+02
4.870000000000215934e+00 1.168807349520623831e+02
4.890000000000215508e+00 1.161706010708223289e+02
4.910000000000215081e+00 1.147950473349031597e+02
4.930000000000214655e+00 1.133160834424355841e+02
4.950000000000214229e+00 1.121448780680717903e+02
4.970000000000213802e+00 1.107174232392212900e+02
4.990000000000213376e+00 1.096588636560421151e+02
5.010000000000212950e+00 1.087466040684394386e+02
5.030000000000212523e+00 1.072509369754408937e+02
5.050000000000212097e+00 1.059059907206822402e+02
5.070000000000211671e+00 1.040614425735916484e+02
5.090000000000211244e+00 1.032683723357989294e+02
5.110000000000210818e+00 1.021371627175101651e+02
5.130000000000210392e+00 1.004122079256093372e+02
5.150000000000209965e+00 9.952852425535438385e+01
5.170000000000209539e+00 9.792839608657136807e+01
5.190000000000209113e+00 9.684130039993252126e+01
5.210000000000208686e+00 9.578724902878406056e+01
5.230000000000208260e+00 9.448643795366929510e+01
5.250000000000207834e+00 9.341167050728068943e+01
5.270000000000207407e+00 9.284480336484664065e+01
5.290000000000206981e+00 9.289290780158123084e+01
5.310000000000206555e+00 9.276300692154687511e+01
5.330000000000206128e+00 9.167137566517827452e+01
5.350000000000205702e+00 9.046765942848774955e+01
5.370000000000205276e+00 8.953602770834703506e+01
5.390000000000204849e+00 8.841812114395294486e+01
5.410000000000204423e+00 8.624292235053864886e+01
5.430000000000203997e+00 8.510769243818833729e+01
5.450000000000203570e+00 8.367818475054932037e+01
5.470000000000203144e+00 8.257178500696079482e+01
5.490000000000202718e+00 8.163170157457629728e+01
5.510000000000202292e+00 8.109085480690696102e+01
5.530000000000201865e+00 8.019363617195089944e+01
5.550000000000201439e+00 7.911048482603386844e+01
5.570000000000201013e+00 7.857938127056650046e+01
5.590000000000200586e+00 7.752340424080674097e+01
5.610000000000200160e+00 7.695664299919131679e+01
5.630000000000199734e+00 7.585368250763194453e+01
5.650000000000199307e+00 7.498754633908123424e+01
5.670000000000198881e+00 7.433439175784653230e+01
5.690000000000198455e+00 7.338481231342204580e+01
5.710000000000198028e+00 7.236093060817998435e+01
5.730000000000197602e+00 7.175181641738586791e+01
5.750000000000197176e+00 7.095702611908902213e+01
5.770000000000196749e+00 7.013725631339777067e+01
5.790000000000196323e+00 6.903120187760269744e+01
5.810000000000195897e+00 6.818837788805011257e+01
5.830000000000195470e+00 6.775335474273170178e+01
5.850000000000195044e+00 6.703428284033790874e+01
5.870000000000194618e+00 6.642066709541781222e+01
5.890000000000194191e+00 6.616860885497277422e+01
5.910000000000193765e+00 6.524038629770360842e+01
5.930000000000193339e+00 6.504182176802676452e+01
5.950000000000192912e+00 6.542413935068522335e+01
5.970000000000192486e+00 6.487430174727012400e+01
5.990000000000192060e+00 6.426792723036710697e+01
6.010000000000191633e+00 6.328594724161430207e+01
6.030000000000191207e+00 6.320826926845099791e+01
6.050000000000190781e+00 6.174938113429994502e+01
6.070000000000190354e+00 6.149349536406759853e+01
6.090000000000189928e+00 5.965356769942816584e+01
6.110000000000189502e+00 5.919608111397723604e+01
6.130000000000189075e+00 5.782434761941541979e+01
6.150000000000188649e+00 5.752110996338814886e+01
6.170000000000188223e+00 5.653515590249880773e+01
6.190000000000187796e+00 5.579429366592544426e+01
6.210000000000187370e+00 5.539626357789881439e+01
6.230000000000186944e+00 5.488137451672999134e+01
6.250000000000186517e+00 5.427325621975823822e+01
6.270000000000186091e+00 5.335437198046294327e+01
6.290000000000185665e+00 5.315629826578881989e+01
6.310000000000185238e+00 5.259500268456296368e+01
6.330000000000184812e+00 5.227758174316151241e+01
6.350000000000184386e+00 5.179098390767127569e+01
6.370000000000183960e+00 5.109025799561637626e+01
6.390000000000183533e+00 5.083865153312165575e+01
6.410000000000183107e+00 4.979124080654719364e+01
6.430000000000182681e+00 4.955549568743886368e+01
6.450000000000182254e+00 4.908163480912702425e+01
6.470000000000181828e+00 4.866243339716216809e+01
6.490000000000181402e+00 4.814721566775740058e+01
6.510000000000180975e+00 4.772153539265431732e+01
6.530000000000180549e+00 4.802704255392566068e+01
6.550000000000180123e+00 4.731906758675689417e+01
6.570000000000179696e+00 4.681122030041714055e+01
6.590000000000179270e+00 4.617922980697640156e+01
6.610000000000178844e+00 4.605822108104822377e+01
6.630000000000178417e+00 4.509707031075863171e+01
6.650000000000177991e+00 4.464260024809979654e+01
6.670000000000177565e+00 4.384858121968390066e+01
6.690000000000177138e+00 4.361552857720294440e+01
6.710000000000176712e+00 4.277734937922426184e+01
6.730000000000176286e+00 4.273423833970433350e+01
6.750000000000175859e+00 4.207492357723966592e+01
6.770000000000175433e+00 4.157528074985835786e+01
6.790000000000175007e+00 4.106450219129069268e+01
6.810000000000174580e+00 4.088597005264639961e+01
6.830000000000174154e+00 4.062883123436478883e+01
6.850000000000173728e+00 4.013007759309789435e+01
6.870000000000173301e+00 3.965482681847525015e+01
6.890000000000172875e+00 3.916188005442626974e+01
6.910000000000172449e+00 3.901377858008034849e+01
6.930000000000172022e+00 3.819751204261010713e+01
6.950000000000171596e+00 3.820176125637240006e+01
6.970000000000171170e+00 3.761804302535307443e+01
6.990000000000170743e+00 3.738348368039362413e+01
7.010000000000170317e+00 3.708910297056291938e+01
7.030000000000169891e+00 3.660980579812353142e+01
7.050000000000169464e+00 3.672905250635051999e+01
7.070000000000169038e+00 3.643684414767245983e+01
7.090000000000168612e+00 3.584061896489966870e+01
7.110000000000168185e+00 3.552170535156044906e+01
7.130000000000167759e+00 3.531110725998239275e+01
7.150000000000167333e+00 3.477741279052798262e+01
7.170000000000166906e+00 3.449527928806353572e+01
7.190000000000166480e+00 3.386273204996533082e+01
7.210000000000166054e+00 3.369264319674932295e+01
7.230000000000165628e+00 3.329887113209254323e+01
7.250000000000165201e+00 3.294857143471885053e+01
7.270000000000164775e+00 3.261202589679675157e+01
7.290000000000164349e+00 3.222881250508038420e+01
7.310000000000163922e+00 3.194873310155711366e+01
7.330000000000163496e+00 3.176114901649757627e+01
7.350000000000163070e+00 3.149336604140094664e+01
7.370000000000162643e+00 3.112274781643153432e+01
7.390000000000162217e+00 3.089689290754997231e+01
7.410000000000161791e+00 3.082302499445538402e+01
7.430000000000161364e+00 3.053471977856224129e+01
7.450000000000160938e+00 3.039104498364423179e+01
7.470000000000160512e+00 3.009391999751614222e+01
7.490000000000160085e+00 2.982304992007235356e+01
7.510000000000159659e+00 2.978706093781199016e+01
7.530000000000159233e+00 2.943583173758019811e+01
7.550000000000158806e+00 2.909351126626416217e+01
7.570000000000158380e+00 2.880805458949615527e+01
7.590000000000157954e+00 2.874919758351606447e+01
7.610000000000157527e+00 2.838154128647496677e+01
7.630000000000157101e+00 2.792291007401383496e+01
7.650000000000156675e+00 2.776930603722012236e+01
7.670000000000156248e+00 2.750539842915041788e+01
7.690000000000155822e+00 2.727033864811831165e+01
7.710000000000155396e+00 2.722453507799096428e+01
7.730000000000154969e+00 2.687067157726543698e+01
7.750000000000154543e+00 2.672519846561393564e+01
7.770000000000154117e+00 2.643672697060228671e+01
7.790000000000153690e+00 2.630926564841906412e+01
7.810000000000153264e+00 2.612749799594200795e+01
7.830000000000152838e+00 2.604100039761583929e+01
7.850000000000152411e+00 2.601895469054895571e+01
7.870000000000151985e+00 2.568200012107110908e+01
7.890000000000151559e+00 2.547417297006140302e+01
7.910000000000151132e+00 2.547962771058476861e+01
7.930000000000150706e+00 2.521281944534318242e+01
7.950000000000150280e+00 2.513499263161317998e+01
7.970000000000149853e+00 2.498659182769736731e+01
