# Redshift		Merger Rate Density [Gpc^-3yr^-1]
1.000000000031931770e-02 1.795023858941073058e+02
3.000000000031888964e-02 1.893107108245951338e+02
5.000000000031846331e-02 1.963379158728925518e+02
7.000000000031804392e-02 2.067550488225081438e+02
9.000000000031761760e-02 2.138710537619940908e+02
1.100000000003171913e-01 2.226283244588817638e+02
1.300000000003167511e-01 2.335431859706613693e+02
1.500000000003163247e-01 2.426296445604259873e+02
1.700000000003158984e-01 2.501819139687426343e+02
1.900000000003154721e-01 2.611447558826945397e+02
2.100000000003150458e-01 2.714040258605477334e+02
2.300000000003146194e-01 2.808102917549776407e+02
2.500000000003141931e-01 2.926596285396085477e+02
2.700000000003137668e-01 3.025176343623570574e+02
2.900000000003133405e-01 3.131815240321924989e+02
3.100000000003129141e-01 3.251032424525152464e+02
3.300000000003124878e-01 3.349332306956702041e+02
3.500000000003120615e-01 3.465604801018928924e+02
3.700000000003116352e-01 3.585933199321778488e+02
3.900000000003112088e-01 3.695977236346507766e+02
4.100000000003107825e-01 3.814757836752635853e+02
4.300000000003103562e-01 3.924212771193428466e+02
4.500000000003099299e-01 4.053477819298325358e+02
4.700000000003095035e-01 4.200014049267339260e+02
4.900000000003090772e-01 4.268747553032350766e+02
5.100000000003086509e-01 4.433405720561103180e+02
5.300000000003082246e-01 4.546175700710458045e+02
5.500000000003077982e-01 4.685626810790063814e+02
5.700000000003073719e-01 4.807654972377363265e+02
5.900000000003069456e-01 4.905676177845832626e+02
6.100000000003065193e-01 5.061646280791553636e+02
6.300000000003060929e-01 5.149206179698775259e+02
6.500000000003056666e-01 5.309858290822389790e+02
6.700000000003052403e-01 5.420949419183931468e+02
6.900000000003048140e-01 5.555244739701008712e+02
7.100000000003043876e-01 5.691618319626659286e+02
7.300000000003039613e-01 5.810746456868785117e+02
7.500000000003035350e-01 5.934145501634210405e+02
7.700000000003031086e-01 6.055005571917397447e+02
7.900000000003026823e-01 6.172823987282334883e+02
8.100000000003022560e-01 6.292333526153948924e+02
8.300000000003018297e-01 6.402051769825045540e+02
8.500000000003014033e-01 6.568955651821044057e+02
8.700000000003009770e-01 6.635030610964730613e+02
8.900000000003005507e-01 6.808996693302639187e+02
9.100000000003001244e-01 6.873523156972680681e+02
9.300000000002996980e-01 6.985623710038604486e+02
9.500000000002992717e-01 7.126195127237685938e+02
9.700000000002988454e-01 7.209891528350866565e+02
9.900000000002984191e-01 7.327031677499221587e+02
1.010000000000297993e+00 7.392431727322484676e+02
1.030000000000297566e+00 7.514526312595529589e+02
1.050000000000297140e+00 7.599287149891855506e+02
1.070000000000296714e+00 7.721255329611124125e+02
1.090000000000296287e+00 7.807095405728026662e+02
1.110000000000295861e+00 7.904772055937185087e+02
1.130000000000295435e+00 7.921332813771371093e+02
1.150000000000295008e+00 8.029406642310269717e+02
1.170000000000294582e+00 8.103088838990926206e+02
1.190000000000294156e+00 8.183414419703328804e+02
1.210000000000293729e+00 8.258320194761093944e+02
1.230000000000293303e+00 8.313430330503464347e+02
1.250000000000292877e+00 8.366136388113842486e+02
1.270000000000292451e+00 8.466436028562375213e+02
1.290000000000292024e+00 8.433747036116942581e+02
1.310000000000291598e+00 8.508454428380420040e+02
1.330000000000291172e+00 8.608653988859585979e+02
1.350000000000290745e+00 8.588755276558448486e+02
1.370000000000290319e+00 8.684009921093405637e+02
1.390000000000289893e+00 8.656406590581639193e+02
1.410000000000289466e+00 8.713333049353888100e+02
1.430000000000289040e+00 8.723562239975374268e+02
1.450000000000288614e+00 8.752369192648842500e+02
1.470000000000288187e+00 8.790523336871517586e+02
1.490000000000287761e+00 8.784835415294710401e+02
1.510000000000287335e+00 8.820450938947963095e+02
1.530000000000286908e+00 8.786011470579710476e+02
1.550000000000286482e+00 8.833868118077806457e+02
1.570000000000286056e+00 8.785484164858206668e+02
1.590000000000285629e+00 8.786446600430746230e+02
1.610000000000285203e+00 8.814783999035832949e+02
1.630000000000284777e+00 8.733337810871393003e+02
1.650000000000284350e+00 8.812788372296530497e+02
1.670000000000283924e+00 8.710285110180595893e+02
1.690000000000283498e+00 8.708338383631711395e+02
1.710000000000283071e+00 8.757748678314720792e+02
1.730000000000282645e+00 8.669987741024427805e+02
1.750000000000282219e+00 8.656554303228857634e+02
1.770000000000281792e+00 8.581315902486092000e+02
1.790000000000281366e+00 8.566517077451769637e+02
1.810000000000280940e+00 8.523356237765702872e+02
1.830000000000280513e+00 8.448466978062635917e+02
1.850000000000280087e+00 8.458838320536694937e+02
1.870000000000279661e+00 8.378368526704607575e+02
1.890000000000279234e+00 8.321052045645267299e+02
1.910000000000278808e+00 8.224335440100003325e+02
1.930000000000278382e+00 8.190700232445979054e+02
1.950000000000277955e+00 8.167281615479107586e+02
1.970000000000277529e+00 8.035709560767428457e+02
1.990000000000277103e+00 8.010049539107480996e+02
2.010000000000276899e+00 7.931947650079711138e+02
2.030000000000276472e+00 7.861680996532085146e+02
2.050000000000276046e+00 7.805766971241201873e+02
2.070000000000275620e+00 7.693999980535526220e+02
2.090000000000275193e+00 7.612618493494505856e+02
2.110000000000274767e+00 7.558963137796450837e+02
2.130000000000274341e+00 7.498877486429444161e+02
2.150000000000273914e+00 7.371737431975509480e+02
2.170000000000273488e+00 7.311099864297486874e+02
2.190000000000273062e+00 7.220747905524291355e+02
2.210000000000272635e+00 7.150285041296720010e+02
2.230000000000272209e+00 7.043031805137784431e+02
2.250000000000271783e+00 6.974566072464866693e+02
2.270000000000271356e+00 6.872281971871580026e+02
2.290000000000270930e+00 6.808115722770255616e+02
2.310000000000270504e+00 6.708450729715206080e+02
2.330000000000270077e+00 6.607479021551893084e+02
2.350000000000269651e+00 6.540162144138732856e+02
2.370000000000269225e+00 6.449769419857985895e+02
2.390000000000268798e+00 6.360526303811284379e+02
2.410000000000268372e+00 6.252829182394170857e+02
2.430000000000267946e+00 6.186135922829627134e+02
2.450000000000267519e+00 6.090361676463370486e+02
2.470000000000267093e+00 5.972693050908361556e+02
2.490000000000266667e+00 5.890029029301811079e+02
2.510000000000266240e+00 5.831394322695143728e+02
2.530000000000265814e+00 5.720067886537794948e+02
2.550000000000265388e+00 5.651479686594453824e+02
2.570000000000264961e+00 5.557020917310837831e+02
2.590000000000264535e+00 5.460465870484528068e+02
2.610000000000264109e+00 5.361079354030174500e+02
2.630000000000263682e+00 5.314830369696236403e+02
2.650000000000263256e+00 5.203197292293421015e+02
2.670000000000262830e+00 5.119176349337848251e+02
2.690000000000262403e+00 5.047280837975847589e+02
2.710000000000261977e+00 4.936849324021531515e+02
2.730000000000261551e+00 4.873058187000780208e+02
2.750000000000261124e+00 4.783043088486445527e+02
2.770000000000260698e+00 4.702385623547280602e+02
2.790000000000260272e+00 4.633025184581555891e+02
2.810000000000259845e+00 4.542605599708576847e+02
2.830000000000259419e+00 4.481427707094011907e+02
2.850000000000258993e+00 4.401480957093659185e+02
2.870000000000258567e+00 4.314719433114640879e+02
2.890000000000258140e+00 4.250057737964510807e+02
2.910000000000257714e+00 4.170238319274561150e+02
2.930000000000257288e+00 4.108445448002647140e+02
2.950000000000256861e+00 4.016672037605990795e+02
2.970000000000256435e+00 3.942595596907102617e+02
2.990000000000256009e+00 3.855407095675846563e+02
3.010000000000255582e+00 3.812519151934968136e+02
3.030000000000255156e+00 3.768486406300346516e+02
3.050000000000254730e+00 3.686218851816440747e+02
3.070000000000254303e+00 3.609401782995904568e+02
3.090000000000253877e+00 3.543207547438694291e+02
3.110000000000253451e+00 3.468833876162331649e+02
3.130000000000253024e+00 3.400248885326957407e+02
3.150000000000252598e+00 3.350722964205397716e+02
3.170000000000252172e+00 3.287652187230908680e+02
3.190000000000251745e+00 3.222604460690745896e+02
3.210000000000251319e+00 3.166047537264980747e+02
3.230000000000250893e+00 3.122808662735730536e+02
3.250000000000250466e+00 3.042666542347581071e+02
3.270000000000250040e+00 2.986175793006450476e+02
3.290000000000249614e+00 2.933723076343091520e+02
3.310000000000249187e+00 2.872102813628321769e+02
3.330000000000248761e+00 2.840628663235963245e+02
3.350000000000248335e+00 2.767955932595523336e+02
3.370000000000247908e+00 2.735129374567868012e+02
3.390000000000247482e+00 2.655289115011111107e+02
3.410000000000247056e+00 2.611519849405314062e+02
3.430000000000246629e+00 2.561601821665260559e+02
3.450000000000246203e+00 2.524341641260500069e+02
3.470000000000245777e+00 2.467303670655500127e+02
3.490000000000245350e+00 2.409917153701852897e+02
3.510000000000244924e+00 2.364418421692450352e+02
3.530000000000244498e+00 2.336260655928676329e+02
3.550000000000244071e+00 2.287925492267520724e+02
3.570000000000243645e+00 2.228598366070211227e+02
3.590000000000243219e+00 2.191651798237320747e+02
3.610000000000242792e+00 2.154860438463774983e+02
3.630000000000242366e+00 2.105807626945288007e+02
3.650000000000241940e+00 2.064798391217918550e+02
3.670000000000241513e+00 2.025697185330799925e+02
3.690000000000241087e+00 1.994942171833575912e+02
3.710000000000240661e+00 1.952598914783675923e+02
3.730000000000240234e+00 1.910705275387273332e+02
3.750000000000239808e+00 1.879760915824623169e+02
3.770000000000239382e+00 1.838681183785406006e+02
3.790000000000238956e+00 1.794757846423487138e+02
3.810000000000238529e+00 1.768523598847353639e+02
3.830000000000238103e+00 1.734903051133029521e+02
3.850000000000237677e+00 1.696496264215514316e+02
3.870000000000237250e+00 1.665678100031025224e+02
3.890000000000236824e+00 1.631870415943944863e+02
3.910000000000236398e+00 1.609785213138835616e+02
3.930000000000235971e+00 1.566198022710739224e+02
3.950000000000235545e+00 1.542660016296065919e+02
3.970000000000235119e+00 1.508228255007190626e+02
3.990000000000234692e+00 1.488842231210571470e+02
4.010000000000234266e+00 1.439743721780891121e+02
4.030000000000233840e+00 1.425088289197852021e+02
4.050000000000233413e+00 1.399713572502359398e+02
4.070000000000232987e+00 1.364853556714616047e+02
4.090000000000232561e+00 1.344521023521140251e+02
4.110000000000232134e+00 1.310345564197401984e+02
4.130000000000231708e+00 1.298730843750394115e+02
4.150000000000231282e+00 1.265911106648608069e+02
4.170000000000230855e+00 1.240685358644990401e+02
4.190000000000230429e+00 1.218931163498574222e+02
4.210000000000230003e+00 1.187552116933312334e+02
4.230000000000229576e+00 1.169801495969965117e+02
4.250000000000229150e+00 1.140152716644940938e+02
4.270000000000228724e+00 1.123254343219915370e+02
4.290000000000228297e+00 1.097956426202929663e+02
4.310000000000227871e+00 1.079242822202233469e+02
4.330000000000227445e+00 1.055364285843866128e+02
4.350000000000227018e+00 1.035132354268589125e+02
4.370000000000226592e+00 1.015802788245925967e+02
4.390000000000226166e+00 9.959033634947466851e+01
4.410000000000225739e+00 9.747812491108993527e+01
4.430000000000225313e+00 9.588932383539730608e+01
4.450000000000224887e+00 9.365884538050427466e+01
4.470000000000224460e+00 9.155343610084204897e+01
4.490000000000224034e+00 9.036130113145527787e+01
4.510000000000223608e+00 8.830850946785032818e+01
4.530000000000223181e+00 8.590501138687044147e+01
4.550000000000222755e+00 8.443086741057480538e+01
4.570000000000222329e+00 8.290831943320809216e+01
4.590000000000221902e+00 8.182217014927236676e+01
4.610000000000221476e+00 7.956102796088985940e+01
4.630000000000221050e+00 7.835203804038521014e+01
4.650000000000220624e+00 7.637442648765757269e+01
4.670000000000220197e+00 7.489665280339191611e+01
4.690000000000219771e+00 7.394683318169214203e+01
4.710000000000219345e+00 7.163311370964156310e+01
4.730000000000218918e+00 7.003412862877394218e+01
4.750000000000218492e+00 6.913785180806182495e+01
4.770000000000218066e+00 6.787434999794329826e+01
4.790000000000217639e+00 6.617862448786756602e+01
4.810000000000217213e+00 6.504130239793416024e+01
4.830000000000216787e+00 6.356012363797960774e+01
4.850000000000216360e+00 6.206150574215738658e+01
4.870000000000215934e+00 6.160013364153937943e+01
4.890000000000215508e+00 5.970057340372174792e+01
4.910000000000215081e+00 5.865419141848422413e+01
4.930000000000214655e+00 5.748473302131868223e+01
4.950000000000214229e+00 5.607013122570414509e+01
4.970000000000213802e+00 5.479754131786137350e+01
4.990000000000213376e+00 5.397578781702837603e+01
5.010000000000212950e+00 5.289592687294732087e+01
5.030000000000212523e+00 5.174193608032464198e+01
5.050000000000212097e+00 5.081290948126245155e+01
5.070000000000211671e+00 4.936396394743903926e+01
5.090000000000211244e+00 4.882814557259202815e+01
5.110000000000210818e+00 4.746506419058166415e+01
5.130000000000210392e+00 4.679640931382898117e+01
5.150000000000209965e+00 4.568411799582295174e+01
5.170000000000209539e+00 4.461214199286776250e+01
5.190000000000209113e+00 4.367400504146924334e+01
5.210000000000208686e+00 4.288842196803499718e+01
5.230000000000208260e+00 4.202395030272267462e+01
5.250000000000207834e+00 4.100393445059876996e+01
5.270000000000207407e+00 4.035078550876847459e+01
5.290000000000206981e+00 3.915303938720636978e+01
5.310000000000206555e+00 3.848860655302999589e+01
5.330000000000206128e+00 3.796368798466613725e+01
5.350000000000205702e+00 3.696172883706534407e+01
5.370000000000205276e+00 3.593446374962848466e+01
5.390000000000204849e+00 3.566156752993876466e+01
5.410000000000204423e+00 3.492643056554620529e+01
5.430000000000203997e+00 3.399794803687673550e+01
5.450000000000203570e+00 3.329307046836052564e+01
5.470000000000203144e+00 3.273492486043330274e+01
5.490000000000202718e+00 3.211673422415776713e+01
5.510000000000202292e+00 3.123342961876986834e+01
5.530000000000201865e+00 3.086709987074945616e+01
5.550000000000201439e+00 3.016110397139749111e+01
5.570000000000201013e+00 2.929311551396303415e+01
5.590000000000200586e+00 2.887491100616878015e+01
5.610000000000200160e+00 2.825566569543407525e+01
5.630000000000199734e+00 2.770917931208389362e+01
5.650000000000199307e+00 2.705636835724524047e+01
5.670000000000198881e+00 2.669442454977727408e+01
5.690000000000198455e+00 2.606663840494844919e+01
5.710000000000198028e+00 2.553720998193740499e+01
5.730000000000197602e+00 2.483709607096625405e+01
5.750000000000197176e+00 2.423395117140691468e+01
5.770000000000196749e+00 2.387628889286376221e+01
5.790000000000196323e+00 2.351032737588206345e+01
5.810000000000195897e+00 2.273294612431575956e+01
5.830000000000195470e+00 2.249164035707915232e+01
5.850000000000195044e+00 2.209538977105449575e+01
5.870000000000194618e+00 2.160344907059598540e+01
5.890000000000194191e+00 2.104093924733485466e+01
5.910000000000193765e+00 2.069545649965432332e+01
5.930000000000193339e+00 2.040245359287937887e+01
5.950000000000192912e+00 1.990829375470790552e+01
5.970000000000192486e+00 1.939244784716634484e+01
5.990000000000192060e+00 1.922063989636182768e+01
6.010000000000191633e+00 1.864304022750324208e+01
6.030000000000191207e+00 1.845162214701293024e+01
6.050000000000190781e+00 1.807793935076137259e+01
6.070000000000190354e+00 1.784320141823853945e+01
6.090000000000189928e+00 1.739192565668482615e+01
6.110000000000189502e+00 1.700646128003677049e+01
6.130000000000189075e+00 1.696254282718172490e+01
6.150000000000188649e+00 1.630488224792378205e+01
6.170000000000188223e+00 1.583533656116927801e+01
6.190000000000187796e+00 1.574491847814525869e+01
6.210000000000187370e+00 1.531889929673399564e+01
6.230000000000186944e+00 1.518338307868689263e+01
6.250000000000186517e+00 1.486092805516811843e+01
6.270000000000186091e+00 1.461002815165784163e+01
6.290000000000185665e+00 1.428330827409376447e+01
6.310000000000185238e+00 1.395105163492980438e+01
6.330000000000184812e+00 1.374536902343884748e+01
6.350000000000184386e+00 1.357888790891541575e+01
6.370000000000183960e+00 1.338687827664397467e+01
6.390000000000183533e+00 1.297267723071013812e+01
6.410000000000183107e+00 1.275243565267018120e+01
6.430000000000182681e+00 1.245003144898799796e+01
6.450000000000182254e+00 1.250911017651563384e+01
6.470000000000181828e+00 1.199033251397232469e+01
6.490000000000181402e+00 1.193808123791968434e+01
6.510000000000180975e+00 1.159854446968197550e+01
6.530000000000180549e+00 1.174916461379479138e+01
6.550000000000180123e+00 1.117319979008482278e+01
6.570000000000179696e+00 1.117157549261880689e+01
6.590000000000179270e+00 1.082513435930300005e+01
6.610000000000178844e+00 1.082383584256909081e+01
6.630000000000178417e+00 1.055545739420305473e+01
6.650000000000177991e+00 1.050865897651810421e+01
6.670000000000177565e+00 1.020948899044490688e+01
6.690000000000177138e+00 1.001756201128240953e+01
6.710000000000176712e+00 1.001157632432525801e+01
6.730000000000176286e+00 9.885096711839365113e+00
6.750000000000175859e+00 9.644653857804854624e+00
6.770000000000175433e+00 9.401728499984638887e+00
6.790000000000175007e+00 9.277190612891581978e+00
6.810000000000174580e+00 9.190306549709120532e+00
6.830000000000174154e+00 8.994451390472361751e+00
6.850000000000173728e+00 8.980372280117405737e+00
6.870000000000173301e+00 8.860154757486661481e+00
6.890000000000172875e+00 8.692135454395128136e+00
6.910000000000172449e+00 8.476514135464928046e+00
6.930000000000172022e+00 8.501114386283992630e+00
6.950000000000171596e+00 8.260353267146481215e+00
6.970000000000171170e+00 8.370277959391541955e+00
6.990000000000170743e+00 8.067964452194402725e+00
7.010000000000170317e+00 8.037186248066371164e+00
7.030000000000169891e+00 7.903532811257433899e+00
7.050000000000169464e+00 7.775588627668414965e+00
7.070000000000169038e+00 7.800680127626947957e+00
7.090000000000168612e+00 7.534671063302869953e+00
7.110000000000168185e+00 7.463390350126922534e+00
7.130000000000167759e+00 7.322675171466910271e+00
7.150000000000167333e+00 7.352399635244220022e+00
7.170000000000166906e+00 7.234101076673818298e+00
7.190000000000166480e+00 7.156642541111808420e+00
7.210000000000166054e+00 7.129094203662657669e+00
7.230000000000165628e+00 7.009157999324748367e+00
7.250000000000165201e+00 6.951838045811712163e+00
7.270000000000164775e+00 6.889112139992160877e+00
7.290000000000164349e+00 6.714099259056158786e+00
7.310000000000163922e+00 6.656193755057029371e+00
7.330000000000163496e+00 6.566913794140286420e+00
7.350000000000163070e+00 6.540347661598229223e+00
7.370000000000162643e+00 6.591635118541502969e+00
7.390000000000162217e+00 6.416046435738422815e+00
7.410000000000161791e+00 6.305983185777933819e+00
7.430000000000161364e+00 6.310298141483579926e+00
7.450000000000160938e+00 6.223931612862188878e+00
7.470000000000160512e+00 6.217208173140035932e+00
7.490000000000160085e+00 6.075672334334659475e+00
7.510000000000159659e+00 6.103436719076300143e+00
7.530000000000159233e+00 6.074300622758338264e+00
7.550000000000158806e+00 5.927481405819693627e+00
7.570000000000158380e+00 5.923907148698311254e+00
7.590000000000157954e+00 5.896229532980089338e+00
7.610000000000157527e+00 5.858072729141389878e+00
7.630000000000157101e+00 5.765830806753147186e+00
7.650000000000156675e+00 5.665917172304895999e+00
7.670000000000156248e+00 5.711501939718398368e+00
7.690000000000155822e+00 5.658043759410942286e+00
7.710000000000155396e+00 5.666644867903547045e+00
7.730000000000154969e+00 5.656539010587334104e+00
7.750000000000154543e+00 5.540931351609234667e+00
7.770000000000154117e+00 5.562318357822398696e+00
7.790000000000153690e+00 5.384907985245704687e+00
7.810000000000153264e+00 5.423164693903564704e+00
7.830000000000152838e+00 5.434576270760343775e+00
7.850000000000152411e+00 5.299138011375647217e+00
7.870000000000151985e+00 5.323712118528443504e+00
7.890000000000151559e+00 5.212650785125156006e+00
7.910000000000151132e+00 5.347033597541050121e+00
7.930000000000150706e+00 5.287296146681743636e+00
7.950000000000150280e+00 5.241313664179722664e+00
7.970000000000149853e+00 5.222261899421629217e+00
