# Redshift		Merger Rate Density [Gpc^-3yr^-1]
1.000000000031931770e-02 1.887661022206260668e+02
3.000000000031888964e-02 1.991488503097861553e+02
5.000000000031846331e-02 2.056540780707414910e+02
7.000000000031804392e-02 2.169530394750102005e+02
9.000000000031761760e-02 2.237385573150754396e+02
1.100000000003171913e-01 2.326560697363075860e+02
1.300000000003167511e-01 2.441600170437119175e+02
1.500000000003163247e-01 2.539579841482812981e+02
1.700000000003158984e-01 2.612232866406545213e+02
1.900000000003154721e-01 2.729730750755190911e+02
2.100000000003150458e-01 2.841208572632004348e+02
2.300000000003146194e-01 2.937385348456539873e+02
2.500000000003141931e-01 3.066454278990450462e+02
2.700000000003137668e-01 3.180309463886026720e+02
2.900000000003133405e-01 3.277990470114104937e+02
3.100000000003129141e-01 3.416555953431253556e+02
3.300000000003124878e-01 3.514958793438385669e+02
3.500000000003120615e-01 3.634750189027183183e+02
3.700000000003116352e-01 3.765194739312941579e+02
3.900000000003112088e-01 3.886043067120990600e+02
4.100000000003107825e-01 4.011220951142217359e+02
4.300000000003103562e-01 4.128567414643477491e+02
4.500000000003099299e-01 4.265491383715058760e+02
4.700000000003095035e-01 4.430598511154905736e+02
4.900000000003090772e-01 4.490816119124993975e+02
5.100000000003086509e-01 4.685930150229017386e+02
5.300000000003082246e-01 4.820049947628061204e+02
5.500000000003077982e-01 4.946279528579522093e+02
5.700000000003073719e-01 5.092101823928398403e+02
5.900000000003069456e-01 5.204382655822663537e+02
6.100000000003065193e-01 5.373738307817810664e+02
6.300000000003060929e-01 5.467438756252108760e+02
6.500000000003056666e-01 5.638632673316107002e+02
6.700000000003052403e-01 5.770231737616184091e+02
6.900000000003048140e-01 5.924849633440734351e+02
7.100000000003043876e-01 6.059051822056869696e+02
7.300000000003039613e-01 6.204309451553374402e+02
7.500000000003035350e-01 6.344911743106524682e+02
7.700000000003031086e-01 6.487166782058330909e+02
7.900000000003026823e-01 6.605187672322820163e+02
8.100000000003022560e-01 6.743967802711784998e+02
8.300000000003018297e-01 6.884695028801412491e+02
8.500000000003014033e-01 7.071136201552312741e+02
8.700000000003009770e-01 7.160010572734947800e+02
8.900000000003005507e-01 7.330578679160082629e+02
9.100000000003001244e-01 7.428425101291264809e+02
9.300000000002996980e-01 7.537510401425847704e+02
9.500000000002992717e-01 7.704926846545024546e+02
9.700000000002988454e-01 7.798366492639472654e+02
9.900000000002984191e-01 7.928275958243947343e+02
1.010000000000297993e+00 7.982630962302525859e+02
1.030000000000297566e+00 8.148576807838937839e+02
1.050000000000297140e+00 8.216344886216572831e+02
1.070000000000296714e+00 8.370418045841464618e+02
1.090000000000296287e+00 8.459907561487632393e+02
1.110000000000295861e+00 8.535808451927242686e+02
1.130000000000295435e+00 8.553584884744188912e+02
1.150000000000295008e+00 8.683175394827577520e+02
1.170000000000294582e+00 8.753495931176344129e+02
1.190000000000294156e+00 8.836616579207885707e+02
1.210000000000293729e+00 8.910942405598599407e+02
1.230000000000293303e+00 8.980363896105042159e+02
1.250000000000292877e+00 9.034430015583742488e+02
1.270000000000292451e+00 9.101875411016022781e+02
1.290000000000292024e+00 9.083392515063751489e+02
1.310000000000291598e+00 9.164259551720147101e+02
1.330000000000291172e+00 9.256755346488342866e+02
1.350000000000290745e+00 9.221914914730413102e+02
1.370000000000290319e+00 9.318554419814608991e+02
1.390000000000289893e+00 9.279897806317754885e+02
1.410000000000289466e+00 9.328413722458370785e+02
1.430000000000289040e+00 9.318055286505533559e+02
1.450000000000288614e+00 9.343749586400333556e+02
1.470000000000288187e+00 9.367615599567383242e+02
1.490000000000287761e+00 9.334760161317951770e+02
1.510000000000287335e+00 9.410119008686941697e+02
1.530000000000286908e+00 9.323489542550786382e+02
1.550000000000286482e+00 9.392936845454717059e+02
1.570000000000286056e+00 9.302501876866733710e+02
1.590000000000285629e+00 9.271745101178690902e+02
1.610000000000285203e+00 9.331082434352179007e+02
1.630000000000284777e+00 9.205620548728454651e+02
1.650000000000284350e+00 9.299133126951892336e+02
1.670000000000283924e+00 9.174825486366265750e+02
1.690000000000283498e+00 9.161899841812785326e+02
1.710000000000283071e+00 9.191857778983329581e+02
1.730000000000282645e+00 9.112309937697866644e+02
1.750000000000282219e+00 9.029641512649430979e+02
1.770000000000281792e+00 8.999668363758528358e+02
1.790000000000281366e+00 8.952514645670098616e+02
1.810000000000280940e+00 8.906264516834903588e+02
1.830000000000280513e+00 8.784353569441686886e+02
1.850000000000280087e+00 8.820173902402476642e+02
1.870000000000279661e+00 8.716302540045456908e+02
1.890000000000279234e+00 8.618037372644755578e+02
1.910000000000278808e+00 8.526973155050444575e+02
1.930000000000278382e+00 8.511395628758957628e+02
1.950000000000277955e+00 8.482003148957170424e+02
1.970000000000277529e+00 8.293331427311925381e+02
1.990000000000277103e+00 8.288891537247715178e+02
2.010000000000276899e+00 8.214505116348016145e+02
2.030000000000276472e+00 8.126017588659042303e+02
2.050000000000276046e+00 8.031789326620935299e+02
2.070000000000275620e+00 7.942973055052508471e+02
2.090000000000275193e+00 7.857219950304488520e+02
2.110000000000274767e+00 7.784043203036335399e+02
2.130000000000274341e+00 7.742305219969156269e+02
2.150000000000273914e+00 7.560178305349381844e+02
2.170000000000273488e+00 7.503068704920684695e+02
2.190000000000273062e+00 7.437471864632465213e+02
2.210000000000272635e+00 7.337801681740268123e+02
2.230000000000272209e+00 7.219901096049430862e+02
2.250000000000271783e+00 7.175868364089086526e+02
2.270000000000271356e+00 7.054179451531576888e+02
2.290000000000270930e+00 6.994045005936081907e+02
2.310000000000270504e+00 6.883389219566664678e+02
2.330000000000270077e+00 6.804409546217024172e+02
2.350000000000269651e+00 6.705220790777960929e+02
2.370000000000269225e+00 6.614634570052012350e+02
2.390000000000268798e+00 6.541279979278140218e+02
2.410000000000268372e+00 6.404962068182861685e+02
2.430000000000267946e+00 6.357268820443204049e+02
2.450000000000267519e+00 6.242876554871406825e+02
2.470000000000267093e+00 6.142401805402258788e+02
2.490000000000266667e+00 6.081170911382674831e+02
2.510000000000266240e+00 5.999062128374648637e+02
2.530000000000265814e+00 5.887926916776137887e+02
2.550000000000265388e+00 5.819307543627154473e+02
2.570000000000264961e+00 5.724813723169344257e+02
2.590000000000264535e+00 5.631419435571939403e+02
2.610000000000264109e+00 5.530587259430830045e+02
2.630000000000263682e+00 5.497186033373270675e+02
2.650000000000263256e+00 5.370686183924010493e+02
2.670000000000262830e+00 5.283966990094619405e+02
2.690000000000262403e+00 5.207829735582752164e+02
2.710000000000261977e+00 5.109238068660820886e+02
2.730000000000261551e+00 5.044429390872301155e+02
2.750000000000261124e+00 4.952914880920201313e+02
2.770000000000260698e+00 4.873521317733622595e+02
2.790000000000260272e+00 4.800029276275482744e+02
2.810000000000259845e+00 4.717182499014240875e+02
2.830000000000259419e+00 4.655993885205936635e+02
2.850000000000258993e+00 4.578513090793084075e+02
2.870000000000258567e+00 4.487937942857265625e+02
2.890000000000258140e+00 4.438991469037131878e+02
2.910000000000257714e+00 4.350896120949344095e+02
2.930000000000257288e+00 4.275989903643065873e+02
2.950000000000256861e+00 4.194946210422971262e+02
2.970000000000256435e+00 4.116422437840973316e+02
2.990000000000256009e+00 4.022612079154781100e+02
3.010000000000255582e+00 3.986787526301189359e+02
3.030000000000255156e+00 3.953390863083665749e+02
3.050000000000254730e+00 3.859892524345934817e+02
3.070000000000254303e+00 3.788551498827734463e+02
3.090000000000253877e+00 3.732709186167858775e+02
3.110000000000253451e+00 3.641156736054483076e+02
3.130000000000253024e+00 3.563974212852938308e+02
3.150000000000252598e+00 3.527243050537789486e+02
3.170000000000252172e+00 3.452771516868478443e+02
3.190000000000251745e+00 3.406056654940131807e+02
3.210000000000251319e+00 3.335820838253905549e+02
3.230000000000250893e+00 3.286164771433844862e+02
3.250000000000250466e+00 3.201510462124535366e+02
3.270000000000250040e+00 3.153858468198837954e+02
3.290000000000249614e+00 3.093003418260368562e+02
3.310000000000249187e+00 3.026667826229614775e+02
3.330000000000248761e+00 3.003727196635609857e+02
3.350000000000248335e+00 2.927914621294492008e+02
3.370000000000247908e+00 2.905691598290270576e+02
3.390000000000247482e+00 2.804335175618329004e+02
3.410000000000247056e+00 2.757710767020509479e+02
3.430000000000246629e+00 2.714092115095622262e+02
3.450000000000246203e+00 2.674091906557800371e+02
3.470000000000245777e+00 2.615017238297672293e+02
3.490000000000245350e+00 2.557074777243788333e+02
3.510000000000244924e+00 2.515714833799544579e+02
3.530000000000244498e+00 2.481747368038433876e+02
3.550000000000244071e+00 2.437368534032241598e+02
3.570000000000243645e+00 2.366492310997190316e+02
3.590000000000243219e+00 2.332188266550034541e+02
3.610000000000242792e+00 2.295390729879693765e+02
3.630000000000242366e+00 2.245602379198128347e+02
3.650000000000241940e+00 2.211398817455208530e+02
3.670000000000241513e+00 2.161091873390449223e+02
3.690000000000241087e+00 2.131560386897716626e+02
3.710000000000240661e+00 2.090968382765175022e+02
3.730000000000240234e+00 2.047571411685741793e+02
3.750000000000239808e+00 2.024371144657642674e+02
3.770000000000239382e+00 1.975185169354648167e+02
3.790000000000238956e+00 1.930667074016533036e+02
3.810000000000238529e+00 1.899805448884168584e+02
3.830000000000238103e+00 1.865011854626856405e+02
3.850000000000237677e+00 1.834911654031512853e+02
3.870000000000237250e+00 1.803595451751696430e+02
3.890000000000236824e+00 1.767876083461593453e+02
3.910000000000236398e+00 1.745334300753725643e+02
3.930000000000235971e+00 1.704332169950727973e+02
3.950000000000235545e+00 1.678159418854477281e+02
3.970000000000235119e+00 1.635834488612531743e+02
3.990000000000234692e+00 1.624934350791456268e+02
4.010000000000234266e+00 1.570394472707509976e+02
4.030000000000233840e+00 1.556174795535260955e+02
4.050000000000233413e+00 1.535502652254965028e+02
4.070000000000232987e+00 1.503274111346248105e+02
4.090000000000232561e+00 1.481299384731836710e+02
4.110000000000232134e+00 1.441954877506057642e+02
4.130000000000231708e+00 1.437167457749090715e+02
4.150000000000231282e+00 1.398653468846200383e+02
4.170000000000230855e+00 1.372805721146684448e+02
4.190000000000230429e+00 1.351618411818550101e+02
4.210000000000230003e+00 1.321358118374673154e+02
4.230000000000229576e+00 1.302950821458544794e+02
4.250000000000229150e+00 1.270764922406586805e+02
4.270000000000228724e+00 1.251065691064887773e+02
4.290000000000228297e+00 1.228513029026616863e+02
4.310000000000227871e+00 1.208352017699910164e+02
4.330000000000227445e+00 1.180784969372638926e+02
4.350000000000227018e+00 1.160067056339688207e+02
4.370000000000226592e+00 1.142592066088673874e+02
4.390000000000226166e+00 1.124435948121046920e+02
4.410000000000225739e+00 1.099145153139869109e+02
4.430000000000225313e+00 1.079000530943007448e+02
4.450000000000224887e+00 1.056721506424810997e+02
4.470000000000224460e+00 1.035808087112645666e+02
4.490000000000224034e+00 1.020403120125473464e+02
4.510000000000223608e+00 9.996303966038331623e+01
4.530000000000223181e+00 9.739418272917897923e+01
4.550000000000222755e+00 9.564641484928797865e+01
4.570000000000222329e+00 9.405858382717518396e+01
4.590000000000221902e+00 9.278960891792692678e+01
4.610000000000221476e+00 9.050245914090599797e+01
4.630000000000221050e+00 8.886404743610874846e+01
4.650000000000220624e+00 8.689425593833298933e+01
4.670000000000220197e+00 8.479353621399259566e+01
4.690000000000219771e+00 8.389273527986384238e+01
4.710000000000219345e+00 8.105642919798029311e+01
4.730000000000218918e+00 7.957201450525680286e+01
4.750000000000218492e+00 7.841896677024473661e+01
4.770000000000218066e+00 7.745669245152555504e+01
4.790000000000217639e+00 7.503627604287551378e+01
4.810000000000217213e+00 7.373904822182061025e+01
4.830000000000216787e+00 7.206116103105098603e+01
4.850000000000216360e+00 7.036953568138916637e+01
4.870000000000215934e+00 6.987997845770050276e+01
4.890000000000215508e+00 6.736638115669582305e+01
4.910000000000215081e+00 6.617333840067767881e+01
4.930000000000214655e+00 6.532218781308397126e+01
4.950000000000214229e+00 6.278516744304712205e+01
4.970000000000213802e+00 6.177771328539950701e+01
4.990000000000213376e+00 6.072033427614909584e+01
5.010000000000212950e+00 5.921198076764932949e+01
5.030000000000212523e+00 5.778246121024594117e+01
5.050000000000212097e+00 5.677540486535568220e+01
5.070000000000211671e+00 5.508589269527110588e+01
5.090000000000211244e+00 5.430936748863040009e+01
5.110000000000210818e+00 5.257216976213680937e+01
5.130000000000210392e+00 5.173777370140908971e+01
5.150000000000209965e+00 5.039480907006009147e+01
5.170000000000209539e+00 4.894695078690640599e+01
5.190000000000209113e+00 4.787937271141254314e+01
5.210000000000208686e+00 4.676822644868396139e+01
5.230000000000208260e+00 4.559561665976858080e+01
5.250000000000207834e+00 4.463258955147222906e+01
5.270000000000207407e+00 4.332232452178050863e+01
5.290000000000206981e+00 4.200559114700063645e+01
5.310000000000206555e+00 4.112213386860727127e+01
5.330000000000206128e+00 4.062752723226721940e+01
5.350000000000205702e+00 3.921447561418445105e+01
5.370000000000205276e+00 3.783345599585102548e+01
5.390000000000204849e+00 3.755301336687691105e+01
5.410000000000204423e+00 3.641731704049466600e+01
5.430000000000203997e+00 3.537634261279900727e+01
5.450000000000203570e+00 3.438640338262298712e+01
5.470000000000203144e+00 3.382401591638318195e+01
5.490000000000202718e+00 3.300133869948174947e+01
5.510000000000202292e+00 3.182478902872033188e+01
5.530000000000201865e+00 3.144909414462888009e+01
5.550000000000201439e+00 3.050819373822503522e+01
5.570000000000201013e+00 2.941901226676454684e+01
5.590000000000200586e+00 2.890102728680888333e+01
5.610000000000200160e+00 2.806931600651899572e+01
5.630000000000199734e+00 2.752097203290026073e+01
5.650000000000199307e+00 2.639665385105779549e+01
5.670000000000198881e+00 2.623599800981914498e+01
5.690000000000198455e+00 2.536160245384016676e+01
5.710000000000198028e+00 2.473800287395953745e+01
5.730000000000197602e+00 2.380130002627372932e+01
5.750000000000197176e+00 2.320529160777094191e+01
5.770000000000196749e+00 2.271071801157727776e+01
5.790000000000196323e+00 2.235667184898583670e+01
5.810000000000195897e+00 2.132063891568643754e+01
5.830000000000195470e+00 2.108296606939472539e+01
5.850000000000195044e+00 2.076705202137298301e+01
5.870000000000194618e+00 1.999421109860034207e+01
5.890000000000194191e+00 1.946520178638877852e+01
5.910000000000193765e+00 1.909492293773142535e+01
5.930000000000193339e+00 1.874594506697847507e+01
5.950000000000192912e+00 1.819493905590730520e+01
5.970000000000192486e+00 1.758839514602998122e+01
5.990000000000192060e+00 1.748806972798150383e+01
6.010000000000191633e+00 1.686653623533969437e+01
6.030000000000191207e+00 1.657197985007800867e+01
6.050000000000190781e+00 1.633191825659445584e+01
6.070000000000190354e+00 1.606151924501666528e+01
6.090000000000189928e+00 1.559717363647540189e+01
6.110000000000189502e+00 1.512376914742715606e+01
6.130000000000189075e+00 1.524361498650315205e+01
6.150000000000188649e+00 1.449053097307976756e+01
6.170000000000188223e+00 1.394161917326017708e+01
6.190000000000187796e+00 1.385849337631831624e+01
6.210000000000187370e+00 1.351426970953905382e+01
6.230000000000186944e+00 1.333727550171198217e+01
6.250000000000186517e+00 1.308177745418594284e+01
6.270000000000186091e+00 1.279748808500976764e+01
6.290000000000185665e+00 1.260707806552489174e+01
6.310000000000185238e+00 1.220169243065634213e+01
6.330000000000184812e+00 1.208666245128567596e+01
6.350000000000184386e+00 1.206960694465634276e+01
6.370000000000183960e+00 1.187028259471962066e+01
6.390000000000183533e+00 1.139892271788090028e+01
6.410000000000183107e+00 1.119102855393939855e+01
6.430000000000182681e+00 1.086384062792551752e+01
6.450000000000182254e+00 1.109115466014076290e+01
6.470000000000181828e+00 1.053230134832471521e+01
6.490000000000181402e+00 1.054957447438612839e+01
6.510000000000180975e+00 1.020758082390433330e+01
6.530000000000180549e+00 1.046855894061547687e+01
6.550000000000180123e+00 9.854585229068263175e+00
6.570000000000179696e+00 9.901883312320645558e+00
6.590000000000179270e+00 9.559926290836180840e+00
6.610000000000178844e+00 9.628083918482412074e+00
6.630000000000178417e+00 9.380623765808973502e+00
6.650000000000177991e+00 9.435884987611247610e+00
6.670000000000177565e+00 9.147939361295719607e+00
6.690000000000177138e+00 8.985974189216356933e+00
6.710000000000176712e+00 8.957542445477930215e+00
6.730000000000176286e+00 8.915188216289655188e+00
6.750000000000175859e+00 8.742494826008039510e+00
6.770000000000175433e+00 8.461506830904989229e+00
6.790000000000175007e+00 8.379034820725783206e+00
6.810000000000174580e+00 8.354525051004582537e+00
6.830000000000174154e+00 8.201852417983007015e+00
6.850000000000173728e+00 8.164058601490591371e+00
6.870000000000173301e+00 8.136013016638667494e+00
6.890000000000172875e+00 7.984881068247651648e+00
6.910000000000172449e+00 7.767218748400236628e+00
6.930000000000172022e+00 7.814137795469787484e+00
6.950000000000171596e+00 7.595548139179789437e+00
6.970000000000171170e+00 7.787788360432540635e+00
6.990000000000170743e+00 7.421578050483574884e+00
7.010000000000170317e+00 7.454839812642674701e+00
7.030000000000169891e+00 7.339520260611871016e+00
7.050000000000169464e+00 7.244870667476508430e+00
7.070000000000169038e+00 7.293809308780742739e+00
7.090000000000168612e+00 6.987357196844652840e+00
7.110000000000168185e+00 6.973709628057913612e+00
7.130000000000167759e+00 6.859573593299121086e+00
7.150000000000167333e+00 6.931735915369137579e+00
7.170000000000166906e+00 6.738080643524448021e+00
7.190000000000166480e+00 6.701018563326987199e+00
7.210000000000166054e+00 6.742042398014552518e+00
7.230000000000165628e+00 6.603926996579070341e+00
7.250000000000165201e+00 6.545916480455249875e+00
7.270000000000164775e+00 6.572130562531021347e+00
7.290000000000164349e+00 6.277242922743701214e+00
7.310000000000163922e+00 6.241831605041157971e+00
7.330000000000163496e+00 6.154975382180571053e+00
7.350000000000163070e+00 6.163592672963590147e+00
7.370000000000162643e+00 6.242258849538251830e+00
7.390000000000162217e+00 6.048593086781467676e+00
7.410000000000161791e+00 5.910240522062113477e+00
7.430000000000161364e+00 5.941106186714772974e+00
7.450000000000160938e+00 5.784347357206166329e+00
7.470000000000160512e+00 5.786655810583293480e+00
7.490000000000160085e+00 5.636944396872443974e+00
7.510000000000159659e+00 5.718715684655262699e+00
7.530000000000159233e+00 5.684239799491825451e+00
7.550000000000158806e+00 5.493216267725762769e+00
7.570000000000158380e+00 5.491983589038061275e+00
7.590000000000157954e+00 5.420596966008035089e+00
7.610000000000157527e+00 5.445195448805288940e+00
7.630000000000157101e+00 5.256368509856828020e+00
7.650000000000156675e+00 5.139534405116035209e+00
7.670000000000156248e+00 5.173289480017436937e+00
7.690000000000155822e+00 5.167883106520100966e+00
7.710000000000155396e+00 5.142258449474168103e+00
7.730000000000154969e+00 5.138690068073381134e+00
7.750000000000154543e+00 5.000405051858533234e+00
7.770000000000154117e+00 5.027860287000390116e+00
7.790000000000153690e+00 4.824400679733734876e+00
7.810000000000153264e+00 4.822316518398142904e+00
7.830000000000152838e+00 4.869049893129314022e+00
7.850000000000152411e+00 4.674284010833224201e+00
7.870000000000151985e+00 4.724457274453832234e+00
7.890000000000151559e+00 4.557110881503742661e+00
7.910000000000151132e+00 4.724954607008950092e+00
7.930000000000150706e+00 4.640803866210482020e+00
7.950000000000150280e+00 4.589270032054729498e+00
7.970000000000149853e+00 4.556786348444765267e+00
