# Redshift		Merger Rate Density [Gpc^-3yr^-1]
1.000000000031931770e-02 1.047632682396756287e+01
3.000000000031888964e-02 1.100420584273985014e+01
5.000000000031846331e-02 1.143146478901333118e+01
7.000000000031804392e-02 1.192298709244584209e+01
9.000000000031761760e-02 1.246290924010193635e+01
1.100000000003171913e-01 1.291284522288431624e+01
1.300000000003167511e-01 1.350588540567389373e+01
1.500000000003163247e-01 1.394679602308335475e+01
1.700000000003158984e-01 1.452708503410480034e+01
1.900000000003154721e-01 1.503612139997591868e+01
2.100000000003150458e-01 1.555771495384968262e+01
2.300000000003146194e-01 1.604100542335152824e+01
2.500000000003141931e-01 1.666563240828850567e+01
2.700000000003137668e-01 1.730889173917299573e+01
2.900000000003133405e-01 1.776746034957744413e+01
3.100000000003129141e-01 1.832564344174205928e+01
3.300000000003124878e-01 1.903612409584152587e+01
3.500000000003120615e-01 1.955103061624098970e+01
3.700000000003116352e-01 2.026990186201355115e+01
3.900000000003112088e-01 2.066373795665091251e+01
4.100000000003107825e-01 2.138606929262162737e+01
4.300000000003103562e-01 2.198461251260685145e+01
4.500000000003099299e-01 2.255584445816373318e+01
4.700000000003095035e-01 2.328493005293292839e+01
4.900000000003090772e-01 2.398107614417235922e+01
5.100000000003086509e-01 2.439039034502012271e+01
5.300000000003082246e-01 2.516708443650795957e+01
5.500000000003077982e-01 2.584039231630467626e+01
5.700000000003073719e-01 2.652946831285797913e+01
5.900000000003069456e-01 2.719554022406761717e+01
6.100000000003065193e-01 2.769178139506849590e+01
6.300000000003060929e-01 2.854820862640755763e+01
6.500000000003056666e-01 2.927952707410219091e+01
6.700000000003052403e-01 2.991508464790950939e+01
6.900000000003048140e-01 3.050925114716847020e+01
7.100000000003043876e-01 3.133265424600476123e+01
7.300000000003039613e-01 3.207400063503693133e+01
7.500000000003035350e-01 3.265754049662017167e+01
7.700000000003031086e-01 3.356792130687848186e+01
7.900000000003026823e-01 3.425032810498019131e+01
8.100000000003022560e-01 3.509288844407168995e+01
8.300000000003018297e-01 3.563357413296752441e+01
8.500000000003014033e-01 3.652775767606102164e+01
8.700000000003009770e-01 3.721673878725702878e+01
8.900000000003005507e-01 3.817833686882875099e+01
9.100000000003001244e-01 3.873740278452793007e+01
9.300000000002996980e-01 3.960062465216189764e+01
9.500000000002992717e-01 4.034074872451260774e+01
9.700000000002988454e-01 4.098993738372419671e+01
9.900000000002984191e-01 4.198121212525031609e+01
1.010000000000297993e+00 4.259541580258014193e+01
1.030000000000297566e+00 4.347156745010641288e+01
1.050000000000297140e+00 4.410860841272071298e+01
1.070000000000296714e+00 4.478986118955565843e+01
1.090000000000296287e+00 4.560925331714484088e+01
1.110000000000295861e+00 4.648108612722144528e+01
1.130000000000295435e+00 4.702513021770395341e+01
1.150000000000295008e+00 4.770478597177137203e+01
1.170000000000294582e+00 4.829167767047185578e+01
1.190000000000294156e+00 4.917660092275934858e+01
1.210000000000293729e+00 4.965122987296519597e+01
1.230000000000293303e+00 5.016693300406474521e+01
1.250000000000292877e+00 5.116028163745764346e+01
1.270000000000292451e+00 5.148928805879828019e+01
1.290000000000292024e+00 5.204410354566866914e+01
1.310000000000291598e+00 5.299442201251564910e+01
1.330000000000291172e+00 5.327155617913605568e+01
1.350000000000290745e+00 5.393888757078720175e+01
1.370000000000290319e+00 5.441275285383279225e+01
1.390000000000289893e+00 5.483832862156225474e+01
1.410000000000289466e+00 5.534284888656461732e+01
1.430000000000289040e+00 5.597705801154193495e+01
1.450000000000288614e+00 5.626171689067672332e+01
1.470000000000288187e+00 5.676211712808903798e+01
1.490000000000287761e+00 5.717055139831455790e+01
1.510000000000287335e+00 5.726515358159785052e+01
1.530000000000286908e+00 5.796725741902992723e+01
1.550000000000286482e+00 5.803502443895735041e+01
1.570000000000286056e+00 5.857405804391386539e+01
1.590000000000285629e+00 5.863337255380036339e+01
1.610000000000285203e+00 5.872432945457750009e+01
1.630000000000284777e+00 5.897202314433801718e+01
1.650000000000284350e+00 5.900544636250174335e+01
1.670000000000283924e+00 5.930261402179174013e+01
1.690000000000283498e+00 5.949064286344368213e+01
1.710000000000283071e+00 5.954961132519640898e+01
1.730000000000282645e+00 5.959905809427906576e+01
1.750000000000282219e+00 5.938703224008458648e+01
1.770000000000281792e+00 5.975639198122657803e+01
1.790000000000281366e+00 5.926833303019630961e+01
1.810000000000280940e+00 5.957231798769976905e+01
1.830000000000280513e+00 5.931623583802137034e+01
1.850000000000280087e+00 5.903471196061960313e+01
1.870000000000279661e+00 5.924820164476235362e+01
1.890000000000279234e+00 5.892072719982057549e+01
1.910000000000278808e+00 5.879090835256239700e+01
1.930000000000278382e+00 5.835390357526948435e+01
1.950000000000277955e+00 5.794562204325318788e+01
1.970000000000277529e+00 5.798584428154709514e+01
1.990000000000277103e+00 5.798073538381340342e+01
2.010000000000276899e+00 5.751392174204124075e+01
2.030000000000276472e+00 5.705879280531453190e+01
2.050000000000276046e+00 5.679537700352134522e+01
2.070000000000275620e+00 5.684680307189748305e+01
2.090000000000275193e+00 5.666298776730774733e+01
2.110000000000274767e+00 5.556983933731113723e+01
2.130000000000274341e+00 5.483720646031625989e+01
2.150000000000273914e+00 5.462181984680814395e+01
2.170000000000273488e+00 5.434951660818651220e+01
2.190000000000273062e+00 5.345769796812653851e+01
2.210000000000272635e+00 5.371789619006588623e+01
2.230000000000272209e+00 5.301878909653114391e+01
2.250000000000271783e+00 5.222334351704557776e+01
2.270000000000271356e+00 5.181192120875426355e+01
2.290000000000270930e+00 5.195180269051192568e+01
2.310000000000270504e+00 5.187172751724346398e+01
2.330000000000270077e+00 5.091199778889655647e+01
2.350000000000269651e+00 4.945338623153557478e+01
2.370000000000269225e+00 4.986015552829086062e+01
2.390000000000268798e+00 4.742787189271628989e+01
2.410000000000268372e+00 4.744845185036771085e+01
2.430000000000267946e+00 4.648873869574160977e+01
2.450000000000267519e+00 4.539002317349283544e+01
2.470000000000267093e+00 4.499736758134240233e+01
2.490000000000266667e+00 4.372820292958446231e+01
2.510000000000266240e+00 4.298883854413301009e+01
2.530000000000265814e+00 4.216880383646461183e+01
2.550000000000265388e+00 4.106816092909971161e+01
2.570000000000264961e+00 4.027867006825668739e+01
2.590000000000264535e+00 3.953665236406546057e+01
2.610000000000264109e+00 3.862944528845840608e+01
2.630000000000263682e+00 3.823640798881076108e+01
2.650000000000263256e+00 3.728967253776591662e+01
2.670000000000262830e+00 3.655320795356870889e+01
2.690000000000262403e+00 3.605767114013215036e+01
2.710000000000261977e+00 3.509677097348246377e+01
2.730000000000261551e+00 3.464679670550455626e+01
2.750000000000261124e+00 3.398698453795341123e+01
2.770000000000260698e+00 3.331283313379829991e+01
2.790000000000260272e+00 3.260403279457937487e+01
2.810000000000259845e+00 3.205571280967124892e+01
2.830000000000259419e+00 3.132898951843819191e+01
2.850000000000258993e+00 3.091148061121715429e+01
2.870000000000258567e+00 3.022675444947382317e+01
2.890000000000258140e+00 2.972830190563755792e+01
2.910000000000257714e+00 2.899220924470485272e+01
2.930000000000257288e+00 2.842234926435068942e+01
2.950000000000256861e+00 2.780023221028134373e+01
2.970000000000256435e+00 2.728682504082510007e+01
2.990000000000256009e+00 2.676047472406279581e+01
3.010000000000255582e+00 2.623349052191870712e+01
3.030000000000255156e+00 2.554012038323099887e+01
3.050000000000254730e+00 2.505730883412182664e+01
3.070000000000254303e+00 2.446405695731760588e+01
3.090000000000253877e+00 2.400126586801739847e+01
3.110000000000253451e+00 2.348896081684915060e+01
3.130000000000253024e+00 2.299099450046172777e+01
3.150000000000252598e+00 2.248975779048716106e+01
3.170000000000252172e+00 2.202259798331665408e+01
3.190000000000251745e+00 2.148478368850410547e+01
3.210000000000251319e+00 2.103909992471967882e+01
3.230000000000250893e+00 2.062377022165739149e+01
3.250000000000250466e+00 2.022446672338998752e+01
3.270000000000250040e+00 1.964850107668623380e+01
3.290000000000249614e+00 1.924486615874774387e+01
3.310000000000249187e+00 1.874237973958519987e+01
3.330000000000248761e+00 1.838317555617503984e+01
3.350000000000248335e+00 1.801538470948476345e+01
3.370000000000247908e+00 1.760532429848282021e+01
3.390000000000247482e+00 1.713840227246296877e+01
3.410000000000247056e+00 1.675326362885183684e+01
3.430000000000246629e+00 1.642057519662365195e+01
3.450000000000246203e+00 1.596529704615351797e+01
3.470000000000245777e+00 1.568039965905626865e+01
3.490000000000245350e+00 1.531349402230546275e+01
3.510000000000244924e+00 1.496345397109207376e+01
3.530000000000244498e+00 1.462937115692606760e+01
3.550000000000244071e+00 1.420781048963182513e+01
3.570000000000243645e+00 1.395603938353283446e+01
3.590000000000243219e+00 1.360800752316320583e+01
3.610000000000242792e+00 1.325583259593792818e+01
3.630000000000242366e+00 1.297573043882276345e+01
3.650000000000241940e+00 1.270239872764177136e+01
3.670000000000241513e+00 1.236392344960399647e+01
3.690000000000241087e+00 1.229272684526465298e+01
3.710000000000240661e+00 1.207941981773847573e+01
3.730000000000240234e+00 1.175251085755284208e+01
3.750000000000239808e+00 1.148312261935469536e+01
3.770000000000239382e+00 1.117543097403257413e+01
3.790000000000238956e+00 1.090658109963303879e+01
3.810000000000238529e+00 1.065224173899024684e+01
3.830000000000238103e+00 1.046596888099046474e+01
3.850000000000237677e+00 1.016059593294387930e+01
3.870000000000237250e+00 9.922803506658887329e+00
3.890000000000236824e+00 9.534335153316156664e+00
3.910000000000236398e+00 9.360888663223654760e+00
3.930000000000235971e+00 9.131066821887422691e+00
3.950000000000235545e+00 8.963663216730529015e+00
3.970000000000235119e+00 8.631540534140857091e+00
3.990000000000234692e+00 8.419332573958527632e+00
4.010000000000234266e+00 8.202553528050568588e+00
4.030000000000233840e+00 8.090652731172024659e+00
4.050000000000233413e+00 7.906644587760181864e+00
4.070000000000232987e+00 7.631377460953637559e+00
4.090000000000232561e+00 7.526682884959732256e+00
4.110000000000232134e+00 7.294435048847656589e+00
4.130000000000231708e+00 7.196891647892232236e+00
4.150000000000231282e+00 6.957663121253608196e+00
4.170000000000230855e+00 6.880202674290247344e+00
4.190000000000230429e+00 6.646133010224550830e+00
4.210000000000230003e+00 6.527786021027713659e+00
4.230000000000229576e+00 6.265854979538820757e+00
4.250000000000229150e+00 6.066374573617380861e+00
4.270000000000228724e+00 5.959975818444561924e+00
4.290000000000228297e+00 5.725564374412872581e+00
4.310000000000227871e+00 5.564715233134896799e+00
4.330000000000227445e+00 5.459829233080635724e+00
4.350000000000227018e+00 5.325834888361111297e+00
4.370000000000226592e+00 5.153109553318689251e+00
4.390000000000226166e+00 5.053417481126278865e+00
4.410000000000225739e+00 4.908815532363956180e+00
4.430000000000225313e+00 4.799918624838364067e+00
4.450000000000224887e+00 4.655758604758892361e+00
4.470000000000224460e+00 4.527456466183387818e+00
4.490000000000224034e+00 4.437872041341832663e+00
4.510000000000223608e+00 4.311256941805171827e+00
4.530000000000223181e+00 4.187345408434420158e+00
4.550000000000222755e+00 4.082342691001271007e+00
4.570000000000222329e+00 3.982264091762145686e+00
4.590000000000221902e+00 3.864985335234591535e+00
4.610000000000221476e+00 3.773061648189569350e+00
4.630000000000221050e+00 3.673791589718564232e+00
4.650000000000220624e+00 3.597538114551966260e+00
4.670000000000220197e+00 3.493225567132289822e+00
4.690000000000219771e+00 3.406224388915176426e+00
4.710000000000219345e+00 3.325273454693601582e+00
4.730000000000218918e+00 3.235400747429359569e+00
4.750000000000218492e+00 3.227519958790852517e+00
4.770000000000218066e+00 3.154452758233733167e+00
4.790000000000217639e+00 3.124257381901193398e+00
4.810000000000217213e+00 2.979910054034268452e+00
4.830000000000216787e+00 2.947006948511952107e+00
4.850000000000216360e+00 2.832144634381756898e+00
4.870000000000215934e+00 2.746065426830222478e+00
4.890000000000215508e+00 2.690398673558926923e+00
4.910000000000215081e+00 2.596978445337310593e+00
4.930000000000214655e+00 2.583116506282370661e+00
4.950000000000214229e+00 2.479158069298424305e+00
4.970000000000213802e+00 2.428355712063791305e+00
4.990000000000213376e+00 2.323327533774016906e+00
5.010000000000212950e+00 2.293123554988824253e+00
5.030000000000212523e+00 2.180598241462516462e+00
5.050000000000212097e+00 2.134066654907863736e+00
5.070000000000211671e+00 2.114234997265818539e+00
5.090000000000211244e+00 2.022747598344440956e+00
5.110000000000210818e+00 1.964929284202366455e+00
5.130000000000210392e+00 1.905926727121415087e+00
5.150000000000209965e+00 1.850505391911291264e+00
5.170000000000209539e+00 1.832941321056873907e+00
5.190000000000209113e+00 1.775594149519682086e+00
5.210000000000208686e+00 1.723847977321743441e+00
5.230000000000208260e+00 1.669519201113100815e+00
5.250000000000207834e+00 1.635305760160799204e+00
5.270000000000207407e+00 1.587307921933901467e+00
5.290000000000206981e+00 1.550020895409618182e+00
5.310000000000206555e+00 1.506691535106902124e+00
5.330000000000206128e+00 1.480613644877724511e+00
5.350000000000205702e+00 1.429377849827052183e+00
5.370000000000205276e+00 1.384157874857128157e+00
5.390000000000204849e+00 1.354730996152174738e+00
5.410000000000204423e+00 1.305972561910030416e+00
5.430000000000203997e+00 1.264062455894598092e+00
5.450000000000203570e+00 1.234531168460150541e+00
5.470000000000203144e+00 1.195388984151613210e+00
5.490000000000202718e+00 1.161322660204296087e+00
5.510000000000202292e+00 1.127299499068755040e+00
5.530000000000201865e+00 1.100139106032063774e+00
5.550000000000201439e+00 1.066681709098177278e+00
5.570000000000201013e+00 1.056734263336848390e+00
5.590000000000200586e+00 1.050042534767182456e+00
5.610000000000200160e+00 1.021328785373611270e+00
5.630000000000199734e+00 1.017124655627036356e+00
5.650000000000199307e+00 9.496987614229551733e-01
5.670000000000198881e+00 9.578719499234736867e-01
5.690000000000198455e+00 8.950629121543551836e-01
5.710000000000198028e+00 8.672113535473379153e-01
5.730000000000197602e+00 8.609020941710182617e-01
5.750000000000197176e+00 8.247169889128231901e-01
5.770000000000196749e+00 7.932858013277267473e-01
5.790000000000196323e+00 7.780564089860833032e-01
5.810000000000195897e+00 7.506053007854278647e-01
5.830000000000195470e+00 7.375718424260890860e-01
5.850000000000195044e+00 7.000197639987574272e-01
5.870000000000194618e+00 6.798708238007811211e-01
5.890000000000194191e+00 6.684458956864823831e-01
5.910000000000193765e+00 6.382648725961204139e-01
5.930000000000193339e+00 6.185330231303129978e-01
5.950000000000192912e+00 6.113790087485748703e-01
5.970000000000192486e+00 5.823803667438290921e-01
5.990000000000192060e+00 5.663009238804966872e-01
6.010000000000191633e+00 5.473883603372294848e-01
6.030000000000191207e+00 5.302766226639540337e-01
6.050000000000190781e+00 5.193772253415199769e-01
6.070000000000190354e+00 5.040286460324896467e-01
6.090000000000189928e+00 4.919536564607066564e-01
6.110000000000189502e+00 4.712929888539131307e-01
6.130000000000189075e+00 4.594673367446063250e-01
6.150000000000188649e+00 4.486921672068704958e-01
6.170000000000188223e+00 4.326726704034092874e-01
6.190000000000187796e+00 4.197239972828025190e-01
6.210000000000187370e+00 4.113644348434289943e-01
6.230000000000186944e+00 3.949464367339368120e-01
6.250000000000186517e+00 3.862569836550023283e-01
6.270000000000186091e+00 3.904285217268164132e-01
6.290000000000185665e+00 3.825411133918819595e-01
6.310000000000185238e+00 3.670337691212563480e-01
6.330000000000184812e+00 3.583533823671449237e-01
6.350000000000184386e+00 3.337323680423853189e-01
6.370000000000183960e+00 3.287240429331238500e-01
6.390000000000183533e+00 3.207213539935248048e-01
6.410000000000183107e+00 3.098803724884844346e-01
6.430000000000182681e+00 2.955892311559314423e-01
6.450000000000182254e+00 2.831163125232089572e-01
6.470000000000181828e+00 2.731939912018084837e-01
6.490000000000181402e+00 2.702655843359091370e-01
6.510000000000180975e+00 2.560822874154032314e-01
6.530000000000180549e+00 2.508431082498699949e-01
6.550000000000180123e+00 2.409292534924848406e-01
6.570000000000179696e+00 2.321191933240832617e-01
6.590000000000179270e+00 2.239738551181133519e-01
6.610000000000178844e+00 2.176450682875272491e-01
6.630000000000178417e+00 2.083050595588763487e-01
6.650000000000177991e+00 2.017136002095883673e-01
6.670000000000177565e+00 1.980783215518567564e-01
6.690000000000177138e+00 1.905827695428642943e-01
6.710000000000176712e+00 1.815955086952233677e-01
6.730000000000176286e+00 1.761802298125473010e-01
6.750000000000175859e+00 1.698195394544588788e-01
6.770000000000175433e+00 1.641729184880420522e-01
6.790000000000175007e+00 1.600902151062477408e-01
6.810000000000174580e+00 1.550664721575758798e-01
6.830000000000174154e+00 1.495502313002774197e-01
6.850000000000173728e+00 1.446039395189684384e-01
6.870000000000173301e+00 1.445828388324427727e-01
6.890000000000172875e+00 1.419755545922131434e-01
6.910000000000172449e+00 1.354763889892157680e-01
6.930000000000172022e+00 1.393174331845327130e-01
6.950000000000171596e+00 1.251503628734170481e-01
6.970000000000171170e+00 1.256827774146280774e-01
6.990000000000170743e+00 1.176057886008897296e-01
7.010000000000170317e+00 1.127023063359739175e-01
7.030000000000169891e+00 1.086800199740812628e-01
7.050000000000169464e+00 1.054724411489284808e-01
7.070000000000169038e+00 9.940461618082452322e-02
7.090000000000168612e+00 9.606434285451337374e-02
7.110000000000168185e+00 9.421076267636294133e-02
7.130000000000167759e+00 8.837594820814009822e-02
7.150000000000167333e+00 8.632503674964737972e-02
7.170000000000166906e+00 8.295606098088441349e-02
7.190000000000166480e+00 8.050903919252225260e-02
7.210000000000166054e+00 7.528769858880100807e-02
7.230000000000165628e+00 7.527177860146738730e-02
7.250000000000165201e+00 7.056600966424443622e-02
7.270000000000164775e+00 6.806355704403975471e-02
7.290000000000164349e+00 6.545656468224397839e-02
7.310000000000163922e+00 6.391804137443532485e-02
7.330000000000163496e+00 6.137802237634391173e-02
7.350000000000163070e+00 5.852331095918174991e-02
7.370000000000162643e+00 5.663526539196567927e-02
7.390000000000162217e+00 5.432068238322752818e-02
7.410000000000161791e+00 5.464736369892998769e-02
7.430000000000161364e+00 5.330373320914896101e-02
7.450000000000160938e+00 5.126596993162951810e-02
7.470000000000160512e+00 5.053836700931543802e-02
7.490000000000160085e+00 4.853958709614420580e-02
7.510000000000159659e+00 4.559894639409403649e-02
7.530000000000159233e+00 4.240028143337597200e-02
7.550000000000158806e+00 4.189786718480910388e-02
7.570000000000158380e+00 3.995342152073225878e-02
7.590000000000157954e+00 3.785678118922555790e-02
7.610000000000157527e+00 3.661775331415034057e-02
7.630000000000157101e+00 3.489537317806000460e-02
7.650000000000156675e+00 3.261805449525356088e-02
7.670000000000156248e+00 3.270819958614912953e-02
7.690000000000155822e+00 3.052614096711128364e-02
7.710000000000155396e+00 2.932849828476839435e-02
7.730000000000154969e+00 2.832777262770183255e-02
7.750000000000154543e+00 2.720978990998124125e-02
7.770000000000154117e+00 2.563705378476098876e-02
7.790000000000153690e+00 2.510470736523275764e-02
7.810000000000153264e+00 2.365307306814563859e-02
7.830000000000152838e+00 2.273794450158264993e-02
7.850000000000152411e+00 2.181497270944119521e-02
7.870000000000151985e+00 2.101974137673876669e-02
7.890000000000151559e+00 2.044674016383046453e-02
7.910000000000151132e+00 2.048924338045051557e-02
7.930000000000150706e+00 2.009322275776221495e-02
7.950000000000150280e+00 1.811709200241531578e-02
7.970000000000149853e+00 1.908856581825838644e-02
