# Redshift		Merger Rate Density [Gpc^-3yr^-1]
1.000000000031931770e-02 9.972459980198301821e+01
3.000000000031888964e-02 1.045449109606541924e+02
5.000000000031846331e-02 1.097755918124774155e+02
7.000000000031804392e-02 1.150032883644344537e+02
9.000000000031761760e-02 1.204381914060352159e+02
1.100000000003171913e-01 1.261204972333123067e+02
1.300000000003167511e-01 1.317349546057972702e+02
1.500000000003163247e-01 1.376404310238777953e+02
1.700000000003158984e-01 1.435450489482290095e+02
1.900000000003154721e-01 1.496667421280181145e+02
2.100000000003150458e-01 1.560764077834102181e+02
2.300000000003146194e-01 1.622777404036280018e+02
2.500000000003141931e-01 1.685824046813105497e+02
2.700000000003137668e-01 1.755834321963768332e+02
2.900000000003133405e-01 1.823387223212751280e+02
3.100000000003129141e-01 1.893724954172632238e+02
3.300000000003124878e-01 1.961050187390897008e+02
3.500000000003120615e-01 2.037531425950575112e+02
3.700000000003116352e-01 2.109791408377594166e+02
3.900000000003112088e-01 2.182953796465318135e+02
4.100000000003107825e-01 2.264240984624400141e+02
4.300000000003103562e-01 2.337991964750499392e+02
4.500000000003099299e-01 2.414358916366117001e+02
4.700000000003095035e-01 2.496152951155812048e+02
4.900000000003090772e-01 2.578419764709414039e+02
5.100000000003086509e-01 2.663160432176080121e+02
5.300000000003082246e-01 2.746859463630507889e+02
5.500000000003077982e-01 2.839167840147773063e+02
5.700000000003073719e-01 2.918893714227050395e+02
5.900000000003069456e-01 3.011768015331579136e+02
6.100000000003065193e-01 3.104676937204802130e+02
6.300000000003060929e-01 3.189198929220094669e+02
6.500000000003056666e-01 3.286640756052330516e+02
6.700000000003052403e-01 3.377868880003617278e+02
6.900000000003048140e-01 3.468173279636362736e+02
7.100000000003043876e-01 3.568721601892056583e+02
7.300000000003039613e-01 3.661107710420998842e+02
7.500000000003035350e-01 3.761618937320963028e+02
7.700000000003031086e-01 3.856821250801346537e+02
7.900000000003026823e-01 3.964072051947838418e+02
8.100000000003022560e-01 4.059758557767728462e+02
8.300000000003018297e-01 4.158042664742565080e+02
8.500000000003014033e-01 4.270091185903877999e+02
8.700000000003009770e-01 4.361671086259831327e+02
8.900000000003005507e-01 4.467144242254694859e+02
9.100000000003001244e-01 4.581870381104992020e+02
9.300000000002996980e-01 4.677537840305897134e+02
9.500000000002992717e-01 4.775704254306775738e+02
9.700000000002988454e-01 4.894939684103393347e+02
9.900000000002984191e-01 4.988490872920999095e+02
1.010000000000297993e+00 5.084918411817412220e+02
1.030000000000297566e+00 5.197983884401003252e+02
1.050000000000297140e+00 5.300541486919117915e+02
1.070000000000296714e+00 5.407754969820954329e+02
1.090000000000296287e+00 5.512294312846325965e+02
1.110000000000295861e+00 5.616817851975320082e+02
1.130000000000295435e+00 5.713080784425608272e+02
1.150000000000295008e+00 5.818756093404905414e+02
1.170000000000294582e+00 5.916955819919039641e+02
1.190000000000294156e+00 6.026042811065278784e+02
1.210000000000293729e+00 6.116709407208962830e+02
1.230000000000293303e+00 6.207520790337083554e+02
1.250000000000292877e+00 6.320714842237048288e+02
1.270000000000292451e+00 6.407423149044755064e+02
1.290000000000292024e+00 6.512522126476729909e+02
1.310000000000291598e+00 6.605060354481031482e+02
1.330000000000291172e+00 6.687562116684385956e+02
1.350000000000290745e+00 6.764762734866269511e+02
1.370000000000290319e+00 6.862698446330366551e+02
1.390000000000289893e+00 6.943994867346960973e+02
1.410000000000289466e+00 7.030568899114917940e+02
1.430000000000289040e+00 7.108692070707043058e+02
1.450000000000288614e+00 7.194332534421596392e+02
1.470000000000288187e+00 7.283765901378483250e+02
1.490000000000287761e+00 7.367796839131018487e+02
1.510000000000287335e+00 7.431337410627613735e+02
1.530000000000286908e+00 7.492646328457767595e+02
1.550000000000286482e+00 7.555834993444017300e+02
1.570000000000286056e+00 7.649088767176662031e+02
1.590000000000285629e+00 7.703200436795380028e+02
1.610000000000285203e+00 7.785002758365650379e+02
1.630000000000284777e+00 7.854199490732240747e+02
1.650000000000284350e+00 7.940856150548173673e+02
1.670000000000283924e+00 7.973907331989804561e+02
1.690000000000283498e+00 8.081913571323253791e+02
1.710000000000283071e+00 8.127845801645387382e+02
1.730000000000282645e+00 8.182991867936885910e+02
1.750000000000282219e+00 8.144769924571130559e+02
1.770000000000281792e+00 8.119905231248725386e+02
1.790000000000281366e+00 8.105180257135008333e+02
1.810000000000280940e+00 8.114343862091425308e+02
1.830000000000280513e+00 8.108874980989977530e+02
1.850000000000280087e+00 8.110080773052046652e+02
1.870000000000279661e+00 8.119350947476814326e+02
1.890000000000279234e+00 8.127619563158611982e+02
1.910000000000278808e+00 8.146184817082443033e+02
1.930000000000278382e+00 8.169703633491774326e+02
1.950000000000277955e+00 8.208806297847150972e+02
1.970000000000277529e+00 8.158216414636203808e+02
1.990000000000277103e+00 8.128534089488940708e+02
2.010000000000276899e+00 8.097963666897178427e+02
2.030000000000276472e+00 8.052573615648556142e+02
2.050000000000276046e+00 8.040260183390099655e+02
2.070000000000275620e+00 8.007573332887886863e+02
2.090000000000275193e+00 8.014863950077635764e+02
2.110000000000274767e+00 7.985150160119319480e+02
2.130000000000274341e+00 7.941818185181881518e+02
2.150000000000273914e+00 7.924952679483880047e+02
2.170000000000273488e+00 7.865856962165806863e+02
2.190000000000273062e+00 7.801789991234568333e+02
2.210000000000272635e+00 7.754648302389304035e+02
2.230000000000272209e+00 7.642969163932506262e+02
2.250000000000271783e+00 7.584517016355850956e+02
2.270000000000271356e+00 7.472481247760939596e+02
2.290000000000270930e+00 7.386072752531126753e+02
2.310000000000270504e+00 7.315612796547155767e+02
2.330000000000270077e+00 7.260031485630781845e+02
2.350000000000269651e+00 7.187020504559438905e+02
2.370000000000269225e+00 7.127613311388996635e+02
2.390000000000268798e+00 7.091410426831897666e+02
2.410000000000268372e+00 7.004332875059852768e+02
2.430000000000267946e+00 6.923179372434663037e+02
2.450000000000267519e+00 6.835772054688706021e+02
2.470000000000267093e+00 6.750382579330454291e+02
2.490000000000266667e+00 6.687860215715601271e+02
2.510000000000266240e+00 6.617602262235870967e+02
2.530000000000265814e+00 6.508231964853899854e+02
2.550000000000265388e+00 6.424367690747343431e+02
2.570000000000264961e+00 6.337171011693192213e+02
2.590000000000264535e+00 6.269505934997240502e+02
2.610000000000264109e+00 6.173245577091053065e+02
2.630000000000263682e+00 6.103885432840341991e+02
2.650000000000263256e+00 6.024587620413412878e+02
2.670000000000262830e+00 5.945205536801511244e+02
2.690000000000262403e+00 5.868182805791287819e+02
2.710000000000261977e+00 5.785058570337649826e+02
2.730000000000261551e+00 5.708084239374563822e+02
2.750000000000261124e+00 5.633010841848421251e+02
2.770000000000260698e+00 5.554016456118901033e+02
2.790000000000260272e+00 5.475936881948474593e+02
2.810000000000259845e+00 5.399636199413889699e+02
2.830000000000259419e+00 5.327252260516381739e+02
2.850000000000258993e+00 5.250146913935335533e+02
2.870000000000258567e+00 5.181961940872531613e+02
2.890000000000258140e+00 5.108748768997525644e+02
2.910000000000257714e+00 5.031074696159076893e+02
2.930000000000257288e+00 4.964728200991962694e+02
2.950000000000256861e+00 4.887409172771133399e+02
2.970000000000256435e+00 4.803733623609173833e+02
2.990000000000256009e+00 4.726385382171800984e+02
3.010000000000255582e+00 4.656106289136610599e+02
3.030000000000255156e+00 4.594442675945174983e+02
3.050000000000254730e+00 4.517869529870102383e+02
3.070000000000254303e+00 4.453097447954488075e+02
3.090000000000253877e+00 4.381607382722834245e+02
3.110000000000253451e+00 4.321122170277628243e+02
3.130000000000253024e+00 4.259457075775435442e+02
3.150000000000252598e+00 4.185695414846367726e+02
3.170000000000252172e+00 4.144843625110572702e+02
3.190000000000251745e+00 4.064319782260055263e+02
3.210000000000251319e+00 4.011032558900001845e+02
3.230000000000250893e+00 3.954039706769943905e+02
3.250000000000250466e+00 3.895732733058797521e+02
3.270000000000250040e+00 3.828142179950284003e+02
3.290000000000249614e+00 3.757307306375271310e+02
3.310000000000249187e+00 3.678668164958571083e+02
3.330000000000248761e+00 3.603431153916981771e+02
3.350000000000248335e+00 3.517489415624989419e+02
3.370000000000247908e+00 3.457097838598356816e+02
3.390000000000247482e+00 3.390594863107647257e+02
3.410000000000247056e+00 3.333823527878108735e+02
3.430000000000246629e+00 3.272868684505796182e+02
3.450000000000246203e+00 3.219676370272271697e+02
3.470000000000245777e+00 3.165124091764652690e+02
3.490000000000245350e+00 3.112804651721294817e+02
3.510000000000244924e+00 3.054604135304459192e+02
3.530000000000244498e+00 3.003326928029468377e+02
3.550000000000244071e+00 2.956667445084237897e+02
3.570000000000243645e+00 2.917071407000446470e+02
3.590000000000243219e+00 2.877613419884795576e+02
3.610000000000242792e+00 2.829594200307720939e+02
3.630000000000242366e+00 2.775365593595908535e+02
3.650000000000241940e+00 2.716632413122292178e+02
3.670000000000241513e+00 2.659243340362280037e+02
3.690000000000241087e+00 2.611610732778419788e+02
3.710000000000240661e+00 2.565393690413174568e+02
3.730000000000240234e+00 2.515355644626980904e+02
3.750000000000239808e+00 2.468901229383458826e+02
3.770000000000239382e+00 2.431293871311009411e+02
3.790000000000238956e+00 2.384863955206060382e+02
3.810000000000238529e+00 2.348305398532614561e+02
3.830000000000238103e+00 2.314209304393669129e+02
3.850000000000237677e+00 2.273132893025762939e+02
3.870000000000237250e+00 2.226359002360005377e+02
3.890000000000236824e+00 2.184026146282870400e+02
3.910000000000236398e+00 2.144964947352172828e+02
3.930000000000235971e+00 2.105332193998915500e+02
3.950000000000235545e+00 2.072475478612551854e+02
3.970000000000235119e+00 2.037098234406354038e+02
3.990000000000234692e+00 1.995194766439173577e+02
4.010000000000234266e+00 1.955770360218016037e+02
4.030000000000233840e+00 1.915668666363602597e+02
4.050000000000233413e+00 1.881848509780876668e+02
4.070000000000232987e+00 1.847562542923775197e+02
4.090000000000232561e+00 1.808110058596279259e+02
4.110000000000232134e+00 1.780451610374292670e+02
4.130000000000231708e+00 1.748602149249479680e+02
4.150000000000231282e+00 1.717486760998106377e+02
4.170000000000230855e+00 1.684397425656570704e+02
4.190000000000230429e+00 1.659417858625096471e+02
4.210000000000230003e+00 1.631954240088278425e+02
4.230000000000229576e+00 1.604488526788926777e+02
4.250000000000229150e+00 1.565812359944332854e+02
4.270000000000228724e+00 1.535418413094649850e+02
4.290000000000228297e+00 1.508621516980685442e+02
4.310000000000227871e+00 1.474517393371895082e+02
4.330000000000227445e+00 1.443041405884404185e+02
4.350000000000227018e+00 1.407345079074235059e+02
4.370000000000226592e+00 1.387731579196268683e+02
4.390000000000226166e+00 1.361107588204462786e+02
4.410000000000225739e+00 1.334600374980582842e+02
4.430000000000225313e+00 1.310290764882821577e+02
4.450000000000224887e+00 1.288435962962194310e+02
4.470000000000224460e+00 1.269728482760567090e+02
4.490000000000224034e+00 1.245965310002268325e+02
4.510000000000223608e+00 1.224516211323746404e+02
4.530000000000223181e+00 1.202975818219443909e+02
4.550000000000222755e+00 1.178595518598375520e+02
4.570000000000222329e+00 1.155784306802745931e+02
4.590000000000221902e+00 1.138000540711599200e+02
4.610000000000221476e+00 1.120326713494987700e+02
4.630000000000221050e+00 1.105667390863797692e+02
4.650000000000220624e+00 1.082196928472839090e+02
4.670000000000220197e+00 1.061744842859350797e+02
4.690000000000219771e+00 1.041094795455995694e+02
4.710000000000219345e+00 1.016038261181520426e+02
4.730000000000218918e+00 9.976340170735048218e+01
4.750000000000218492e+00 9.777845959787262586e+01
4.770000000000218066e+00 9.627127998536813891e+01
4.790000000000217639e+00 9.418578979934800088e+01
4.810000000000217213e+00 9.246010197467417413e+01
4.830000000000216787e+00 9.068171337662090536e+01
4.850000000000216360e+00 8.953685939344792644e+01
4.870000000000215934e+00 8.773521540719906397e+01
4.890000000000215508e+00 8.619345626538367355e+01
4.910000000000215081e+00 8.489315005127835434e+01
4.930000000000214655e+00 8.370402569588753749e+01
4.950000000000214229e+00 8.182200139828820795e+01
4.970000000000213802e+00 8.054840259795157920e+01
4.990000000000213376e+00 7.896839185870976507e+01
5.010000000000212950e+00 7.706652731177966587e+01
5.030000000000212523e+00 7.575318600407501890e+01
5.050000000000212097e+00 7.440572734284903333e+01
5.070000000000211671e+00 7.285440746662986555e+01
5.090000000000211244e+00 7.140033860452678027e+01
5.110000000000210818e+00 6.988220246576860006e+01
5.130000000000210392e+00 6.835418262546932056e+01
5.150000000000209965e+00 6.657330528572677508e+01
5.170000000000209539e+00 6.552814360400482485e+01
5.190000000000209113e+00 6.415654800289991044e+01
5.210000000000208686e+00 6.289781828717103451e+01
5.230000000000208260e+00 6.192631608201065774e+01
5.250000000000207834e+00 6.062982031599641886e+01
5.270000000000207407e+00 5.959042975928640118e+01
5.290000000000206981e+00 5.859759903202873943e+01
5.310000000000206555e+00 5.731088625357891431e+01
5.330000000000206128e+00 5.642955480947974678e+01
5.350000000000205702e+00 5.513222634399820521e+01
5.370000000000205276e+00 5.432916905478217728e+01
5.390000000000204849e+00 5.361335893052812906e+01
5.410000000000204423e+00 5.241947394728256882e+01
5.430000000000203997e+00 5.204198028475332904e+01
5.450000000000203570e+00 5.073534370753241518e+01
5.470000000000203144e+00 5.010881693846744867e+01
5.490000000000202718e+00 4.893705018114204108e+01
5.510000000000202292e+00 4.784136801092722635e+01
5.530000000000201865e+00 4.704962861048350931e+01
5.550000000000201439e+00 4.601017727792305578e+01
5.570000000000201013e+00 4.514669807202812990e+01
5.590000000000200586e+00 4.432344678713156583e+01
5.610000000000200160e+00 4.360758361535723537e+01
5.630000000000199734e+00 4.263972385174463398e+01
5.650000000000199307e+00 4.158690461288414753e+01
5.670000000000198881e+00 4.064028820037868428e+01
5.690000000000198455e+00 4.020261388419503135e+01
5.710000000000198028e+00 3.908624567785386006e+01
5.730000000000197602e+00 3.836868102826690574e+01
5.750000000000197176e+00 3.770346532428987985e+01
5.770000000000196749e+00 3.685350161347611930e+01
5.790000000000196323e+00 3.622090265576522938e+01
5.810000000000195897e+00 3.555424569644472399e+01
5.830000000000195470e+00 3.500842765806460477e+01
5.850000000000195044e+00 3.437637534369822845e+01
5.870000000000194618e+00 3.370795239412819200e+01
5.890000000000194191e+00 3.295039910460301513e+01
5.910000000000193765e+00 3.265837710609647360e+01
5.930000000000193339e+00 3.197778796363679277e+01
5.950000000000192912e+00 3.150622481925170604e+01
5.970000000000192486e+00 3.094053543765737757e+01
5.990000000000192060e+00 3.027074668182272887e+01
6.010000000000191633e+00 2.968966355453184747e+01
6.030000000000191207e+00 2.896565117893367614e+01
6.050000000000190781e+00 2.860745160273271281e+01
6.070000000000190354e+00 2.805558221272402264e+01
6.090000000000189928e+00 2.761654060118411635e+01
6.110000000000189502e+00 2.728329675269571908e+01
6.130000000000189075e+00 2.653283580822803955e+01
6.150000000000188649e+00 2.614531116556738866e+01
6.170000000000188223e+00 2.547221278721185556e+01
6.190000000000187796e+00 2.485383889047314909e+01
6.210000000000187370e+00 2.431410219795918692e+01
6.230000000000186944e+00 2.379397740304892039e+01
6.250000000000186517e+00 2.327210098048742992e+01
6.270000000000186091e+00 2.286135140593089687e+01
6.290000000000185665e+00 2.254734146856783994e+01
6.310000000000185238e+00 2.198462097037742069e+01
6.330000000000184812e+00 2.153018051596776417e+01
6.350000000000184386e+00 2.107287473486690388e+01
6.370000000000183960e+00 2.080618561511890974e+01
6.390000000000183533e+00 2.056529119874959477e+01
6.410000000000183107e+00 2.013833105591809058e+01
6.430000000000182681e+00 1.967384793437654977e+01
6.450000000000182254e+00 1.950814660929952638e+01
6.470000000000181828e+00 1.914173112854122039e+01
6.490000000000181402e+00 1.888663326038532730e+01
6.510000000000180975e+00 1.860650318087350641e+01
6.530000000000180549e+00 1.805560250688709800e+01
6.550000000000180123e+00 1.782328836349530832e+01
6.570000000000179696e+00 1.748077504875945820e+01
6.590000000000179270e+00 1.706990117327145029e+01
6.610000000000178844e+00 1.671199137000795076e+01
6.630000000000178417e+00 1.671324691493701664e+01
6.650000000000177991e+00 1.624014252279129877e+01
6.670000000000177565e+00 1.603814316692416142e+01
6.690000000000177138e+00 1.576538389512377769e+01
6.710000000000176712e+00 1.557417261767970196e+01
6.730000000000176286e+00 1.518134962866654369e+01
6.750000000000175859e+00 1.488865416891745497e+01
6.770000000000175433e+00 1.442967194801369146e+01
6.790000000000175007e+00 1.423741863388792339e+01
6.810000000000174580e+00 1.381313196558215139e+01
6.830000000000174154e+00 1.356563133505222218e+01
6.850000000000173728e+00 1.334125139161165841e+01
6.870000000000173301e+00 1.317550899749315896e+01
6.890000000000172875e+00 1.296822962692429293e+01
6.910000000000172449e+00 1.273733776226091763e+01
6.930000000000172022e+00 1.254342901819833145e+01
6.950000000000171596e+00 1.231331727246385910e+01
6.970000000000171170e+00 1.207880651004763273e+01
6.990000000000170743e+00 1.186526499203434248e+01
7.010000000000170317e+00 1.182716900421058348e+01
7.030000000000169891e+00 1.148191773833290341e+01
7.050000000000169464e+00 1.130192479944368777e+01
7.070000000000169038e+00 1.121428696610200326e+01
7.090000000000168612e+00 1.091930571452350840e+01
7.110000000000168185e+00 1.078244080303248786e+01
7.130000000000167759e+00 1.053645589203491539e+01
7.150000000000167333e+00 1.041295367953802575e+01
7.170000000000166906e+00 1.025301564222435502e+01
7.190000000000166480e+00 1.009108197700314058e+01
7.210000000000166054e+00 9.919297953785596533e+00
7.230000000000165628e+00 9.855508797960437661e+00
7.250000000000165201e+00 9.567347297081282065e+00
7.270000000000164775e+00 9.430719395503576408e+00
7.290000000000164349e+00 9.156224163635185320e+00
7.310000000000163922e+00 9.116058521043504115e+00
7.330000000000163496e+00 8.981862122708907492e+00
7.350000000000163070e+00 8.754574592834819313e+00
7.370000000000162643e+00 8.620959705250148986e+00
7.390000000000162217e+00 8.504565320611016332e+00
7.410000000000161791e+00 8.441838001156016347e+00
7.430000000000161364e+00 8.248657226421785893e+00
7.450000000000160938e+00 8.133171294903757342e+00
7.470000000000160512e+00 8.034986059292576144e+00
7.490000000000160085e+00 7.968367968272495716e+00
7.510000000000159659e+00 7.761523401533957589e+00
7.530000000000159233e+00 7.640940435515700457e+00
7.550000000000158806e+00 7.524885585390648224e+00
7.570000000000158380e+00 7.436093711233271897e+00
7.590000000000157954e+00 7.325721364175720396e+00
7.610000000000157527e+00 7.208257673831454326e+00
7.630000000000157101e+00 7.098512736066110662e+00
7.650000000000156675e+00 6.956807785794016930e+00
7.670000000000156248e+00 6.990255045244773591e+00
7.690000000000155822e+00 6.748481442381330631e+00
7.710000000000155396e+00 6.721037180813299372e+00
7.730000000000154969e+00 6.577098050356043224e+00
7.750000000000154543e+00 6.543427181661740200e+00
7.770000000000154117e+00 6.375663149466198831e+00
7.790000000000153690e+00 6.335776420463961500e+00
7.810000000000153264e+00 6.262703826618514213e+00
7.830000000000152838e+00 6.099530914854084607e+00
7.850000000000152411e+00 6.044784256638463305e+00
7.870000000000151985e+00 5.971392119747324756e+00
7.890000000000151559e+00 5.935338379925547692e+00
7.910000000000151132e+00 5.846149866848969090e+00
7.930000000000150706e+00 5.772810472706791707e+00
7.950000000000150280e+00 5.695294875408318802e+00
7.970000000000149853e+00 5.614680864751839806e+00
