# Redshift		Merger Rate Density [Gpc^-3yr^-1]
1.000000000031931770e-02 1.106458162488647332e+02
3.000000000031888964e-02 1.162030672550506409e+02
5.000000000031846331e-02 1.220594463380346753e+02
7.000000000031804392e-02 1.277789670012139851e+02
9.000000000031761760e-02 1.338276529010248339e+02
1.100000000003171913e-01 1.397894329820929897e+02
1.300000000003167511e-01 1.461910897567599363e+02
1.500000000003163247e-01 1.527700511411378841e+02
1.700000000003158984e-01 1.594214800829894330e+02
1.900000000003154721e-01 1.662225338583879477e+02
2.100000000003150458e-01 1.729650725555264899e+02
2.300000000003146194e-01 1.803862878662048672e+02
2.500000000003141931e-01 1.874717277509928977e+02
2.700000000003137668e-01 1.949627780815496294e+02
2.900000000003133405e-01 2.025056668764592871e+02
3.100000000003129141e-01 2.104061614782559104e+02
3.300000000003124878e-01 2.181974422432428184e+02
3.500000000003120615e-01 2.264838117065274901e+02
3.700000000003116352e-01 2.350128923565943353e+02
3.900000000003112088e-01 2.432519620702080942e+02
4.100000000003107825e-01 2.521794633477313994e+02
4.300000000003103562e-01 2.613114100688886765e+02
4.500000000003099299e-01 2.699373795454316109e+02
4.700000000003095035e-01 2.794187759945156131e+02
4.900000000003090772e-01 2.890739810194310735e+02
5.100000000003086509e-01 2.984325056832269638e+02
5.300000000003082246e-01 3.085162009262630818e+02
5.500000000003077982e-01 3.181140979783730245e+02
5.700000000003073719e-01 3.279744616842990581e+02
5.900000000003069456e-01 3.383685858655377956e+02
6.100000000003065193e-01 3.491273288653305258e+02
6.300000000003060929e-01 3.590948000043192678e+02
6.500000000003056666e-01 3.696771647661063298e+02
6.700000000003052403e-01 3.807537363410004332e+02
6.900000000003048140e-01 3.916124450463880748e+02
7.100000000003043876e-01 4.026271467414578069e+02
7.300000000003039613e-01 4.142529960611137199e+02
7.500000000003035350e-01 4.253669179544767189e+02
7.700000000003031086e-01 4.364743366783283705e+02
7.900000000003026823e-01 4.483689990145005595e+02
8.100000000003022560e-01 4.600070736966926006e+02
8.300000000003018297e-01 4.713929589767262769e+02
8.500000000003014033e-01 4.837629475106887185e+02
8.700000000003009770e-01 4.955643130337221010e+02
8.900000000003005507e-01 5.072602435439005717e+02
9.100000000003001244e-01 5.188067080657295946e+02
9.300000000002996980e-01 5.314426629160316224e+02
9.500000000002992717e-01 5.424977656798699854e+02
9.700000000002988454e-01 5.554528525221138580e+02
9.900000000002984191e-01 5.674252508813015083e+02
1.010000000000297993e+00 5.798949054675717889e+02
1.030000000000297566e+00 5.917081789600684942e+02
1.050000000000297140e+00 6.038144891128800964e+02
1.070000000000296714e+00 6.163852945982697520e+02
1.090000000000296287e+00 6.283273335003408420e+02
1.110000000000295861e+00 6.405454577591686984e+02
1.130000000000295435e+00 6.534313993413514936e+02
1.150000000000295008e+00 6.662659766437907365e+02
1.170000000000294582e+00 6.781366375387830203e+02
1.190000000000294156e+00 6.897807047683065775e+02
1.210000000000293729e+00 7.013478695200244601e+02
1.230000000000293303e+00 7.125527942907759780e+02
1.250000000000292877e+00 7.250992791822818617e+02
1.270000000000292451e+00 7.369878339250926729e+02
1.290000000000292024e+00 7.474298029438683670e+02
1.310000000000291598e+00 7.596074264766983788e+02
1.330000000000291172e+00 7.716340549044639374e+02
1.350000000000290745e+00 7.826503913443679039e+02
1.370000000000290319e+00 7.916936341231980805e+02
1.390000000000289893e+00 8.036840904585355929e+02
1.410000000000289466e+00 8.135561834001169927e+02
1.430000000000289040e+00 8.234365784585187384e+02
1.450000000000288614e+00 8.333029634495705977e+02
1.470000000000288187e+00 8.459616237178681786e+02
1.490000000000287761e+00 8.539062563878733272e+02
1.510000000000287335e+00 8.645662292692204574e+02
1.530000000000286908e+00 8.727888374492642924e+02
1.550000000000286482e+00 8.832847248499813304e+02
1.570000000000286056e+00 8.925359322132970874e+02
1.590000000000285629e+00 8.958230874445372365e+02
1.610000000000285203e+00 9.016687584519231677e+02
1.630000000000284777e+00 9.069817517658834731e+02
1.650000000000284350e+00 9.132483993926346102e+02
1.670000000000283924e+00 9.199151180984993061e+02
1.690000000000283498e+00 9.229821926435037085e+02
1.710000000000283071e+00 9.289672414485644367e+02
1.730000000000282645e+00 9.337027877827496241e+02
1.750000000000282219e+00 9.363014359393177983e+02
1.770000000000281792e+00 9.423988926654666329e+02
1.790000000000281366e+00 9.430780430479700271e+02
1.810000000000280940e+00 9.497415974512417733e+02
1.830000000000280513e+00 9.544169987499822128e+02
1.850000000000280087e+00 9.578485252698002341e+02
1.870000000000279661e+00 9.638498795360532085e+02
1.890000000000279234e+00 9.656877455409737649e+02
1.910000000000278808e+00 9.685402330933688972e+02
1.930000000000278382e+00 9.646430027311740787e+02
1.950000000000277955e+00 9.628641095355829975e+02
1.970000000000277529e+00 9.615299941142308171e+02
1.990000000000277103e+00 9.598484410881566191e+02
2.010000000000276899e+00 9.576474400709710153e+02
2.030000000000276472e+00 9.545841669861694072e+02
2.050000000000276046e+00 9.527838816719112174e+02
2.070000000000275620e+00 9.500331466008807411e+02
2.090000000000275193e+00 9.479421141722665425e+02
2.110000000000274767e+00 9.495289645167770232e+02
2.130000000000274341e+00 9.472396856880151290e+02
2.150000000000273914e+00 9.349147495384868307e+02
2.170000000000273488e+00 9.247599174643460174e+02
2.190000000000273062e+00 9.101115744869026685e+02
2.210000000000272635e+00 9.020554383254543609e+02
2.230000000000272209e+00 8.984258481706746124e+02
2.250000000000271783e+00 8.956690257587640644e+02
2.270000000000271356e+00 8.871887596060859096e+02
2.290000000000270930e+00 8.771419061197954079e+02
2.310000000000270504e+00 8.673112321548277350e+02
2.330000000000270077e+00 8.594512654636636171e+02
2.350000000000269651e+00 8.511383529273284694e+02
2.370000000000269225e+00 8.448379987551477370e+02
2.390000000000268798e+00 8.369741600620927784e+02
2.410000000000268372e+00 8.297581139390209728e+02
2.430000000000267946e+00 8.231373561803209213e+02
2.450000000000267519e+00 8.145905260368530207e+02
2.470000000000267093e+00 8.071518704210526494e+02
2.490000000000266667e+00 7.983539713171760468e+02
2.510000000000266240e+00 7.891203536690474039e+02
2.530000000000265814e+00 7.808653600034946294e+02
2.550000000000265388e+00 7.716141705592177686e+02
2.570000000000264961e+00 7.637091424012493235e+02
2.590000000000264535e+00 7.556315721298558401e+02
2.610000000000264109e+00 7.463790008185039824e+02
2.630000000000263682e+00 7.379354171391875070e+02
2.650000000000263256e+00 7.293624161927068599e+02
2.670000000000262830e+00 7.207661766396146277e+02
2.690000000000262403e+00 7.130117682650111419e+02
2.710000000000261977e+00 7.034380132478930818e+02
2.730000000000261551e+00 6.951375041513480255e+02
2.750000000000261124e+00 6.849919979486038528e+02
2.770000000000260698e+00 6.765463757140520329e+02
2.790000000000260272e+00 6.681853940419192668e+02
2.810000000000259845e+00 6.588427653752914921e+02
2.830000000000259419e+00 6.502907527270184573e+02
2.850000000000258993e+00 6.417337488750309831e+02
2.870000000000258567e+00 6.328886593788639630e+02
2.890000000000258140e+00 6.252727746237080737e+02
2.910000000000257714e+00 6.161379645145979111e+02
2.930000000000257288e+00 6.067221789881359655e+02
2.950000000000256861e+00 5.998474317636705564e+02
2.970000000000256435e+00 5.921232349095113250e+02
2.990000000000256009e+00 5.832337493639741979e+02
3.010000000000255582e+00 5.737530683792763284e+02
3.030000000000255156e+00 5.665969835705442392e+02
3.050000000000254730e+00 5.587771599815123409e+02
3.070000000000254303e+00 5.494067481708988225e+02
3.090000000000253877e+00 5.406061232805793679e+02
3.110000000000253451e+00 5.318278641698219644e+02
3.130000000000253024e+00 5.240184028827277416e+02
3.150000000000252598e+00 5.161134386830681251e+02
3.170000000000252172e+00 5.076531586307582415e+02
3.190000000000251745e+00 4.994376851122856920e+02
3.210000000000251319e+00 4.934511521842042043e+02
3.230000000000250893e+00 4.855728235309891261e+02
3.250000000000250466e+00 4.767008533515345903e+02
3.270000000000250040e+00 4.709829636119329734e+02
3.290000000000249614e+00 4.626049218557515701e+02
3.310000000000249187e+00 4.548865424655474499e+02
3.330000000000248761e+00 4.479451999958405395e+02
3.350000000000248335e+00 4.413846071170013374e+02
3.370000000000247908e+00 4.336207284327132356e+02
3.390000000000247482e+00 4.267955651974336320e+02
3.410000000000247056e+00 4.207200920190608713e+02
3.430000000000246629e+00 4.138920629362318664e+02
3.450000000000246203e+00 4.091264157155546286e+02
3.470000000000245777e+00 4.033993560864492451e+02
3.490000000000245350e+00 3.959446600947213710e+02
3.510000000000244924e+00 3.920506005597745229e+02
3.530000000000244498e+00 3.862429320620802287e+02
3.550000000000244071e+00 3.793997822273432803e+02
3.570000000000243645e+00 3.732162664108962531e+02
3.590000000000243219e+00 3.661298783369790613e+02
3.610000000000242792e+00 3.596409549142859987e+02
3.630000000000242366e+00 3.539135604546994500e+02
3.650000000000241940e+00 3.481231169435307038e+02
3.670000000000241513e+00 3.408170900142179676e+02
3.690000000000241087e+00 3.373824988021017930e+02
3.710000000000240661e+00 3.305940669727618797e+02
3.730000000000240234e+00 3.256342279192258502e+02
3.750000000000239808e+00 3.197433913577526141e+02
3.770000000000239382e+00 3.156867026069791677e+02
3.790000000000238956e+00 3.114808625410211107e+02
3.810000000000238529e+00 3.051008971535274554e+02
3.830000000000238103e+00 3.015004749538026090e+02
3.850000000000237677e+00 2.973827172467864557e+02
3.870000000000237250e+00 2.942660702325279090e+02
3.890000000000236824e+00 2.890241091868822991e+02
3.910000000000236398e+00 2.829023583895049114e+02
3.930000000000235971e+00 2.770814492877083239e+02
3.950000000000235545e+00 2.723885882843038644e+02
3.970000000000235119e+00 2.679366371160562039e+02
3.990000000000234692e+00 2.637925037205329204e+02
4.010000000000234266e+00 2.594791663519345661e+02
4.030000000000233840e+00 2.553556892927951196e+02
4.050000000000233413e+00 2.509272830214845840e+02
4.070000000000232987e+00 2.481489024436311297e+02
4.090000000000232561e+00 2.440303447591334418e+02
4.110000000000232134e+00 2.411942060527102285e+02
4.130000000000231708e+00 2.364852245221505598e+02
4.150000000000231282e+00 2.339035835792710998e+02
4.170000000000230855e+00 2.308562241396050752e+02
4.190000000000230429e+00 2.277566957210314627e+02
4.210000000000230003e+00 2.236370697319472924e+02
4.230000000000229576e+00 2.209516212299054700e+02
4.250000000000229150e+00 2.184056916920224580e+02
4.270000000000228724e+00 2.143078566340105056e+02
4.290000000000228297e+00 2.111951790008540399e+02
4.310000000000227871e+00 2.085078457969503347e+02
4.330000000000227445e+00 2.057704348060521511e+02
4.350000000000227018e+00 2.030417812397953696e+02
4.370000000000226592e+00 2.000269648281764034e+02
4.390000000000226166e+00 1.970052783117975821e+02
4.410000000000225739e+00 1.943902938213285552e+02
4.430000000000225313e+00 1.920558670189477084e+02
4.450000000000224887e+00 1.898332387856081596e+02
4.470000000000224460e+00 1.875792836383192821e+02
4.490000000000224034e+00 1.847027997289086443e+02
4.510000000000223608e+00 1.824857050328022012e+02
4.530000000000223181e+00 1.806395752382099431e+02
4.550000000000222755e+00 1.791883390480663252e+02
4.570000000000222329e+00 1.765623163051600102e+02
4.590000000000221902e+00 1.743437007948796804e+02
4.610000000000221476e+00 1.718965752515494501e+02
4.630000000000221050e+00 1.694922324851226563e+02
4.650000000000220624e+00 1.674182114413360978e+02
4.670000000000220197e+00 1.650097168658379303e+02
4.690000000000219771e+00 1.635660022198501906e+02
4.710000000000219345e+00 1.613001399617454581e+02
4.730000000000218918e+00 1.590520714504841635e+02
4.750000000000218492e+00 1.574351582524796811e+02
4.770000000000218066e+00 1.550111279380626286e+02
4.790000000000217639e+00 1.538443634380220999e+02
4.810000000000217213e+00 1.521914085621189088e+02
4.830000000000216787e+00 1.501883396901828291e+02
4.850000000000216360e+00 1.484657618964867538e+02
4.870000000000215934e+00 1.472805759509306824e+02
4.890000000000215508e+00 1.457442974945842593e+02
4.910000000000215081e+00 1.440934962947278848e+02
4.930000000000214655e+00 1.432224417148654823e+02
4.950000000000214229e+00 1.412851593605027460e+02
4.970000000000213802e+00 1.396753860413658401e+02
4.990000000000213376e+00 1.388573749151898369e+02
5.010000000000212950e+00 1.372368574878067022e+02
5.030000000000212523e+00 1.363086655163458829e+02
5.050000000000212097e+00 1.339580592476636980e+02
5.070000000000211671e+00 1.328590837058211491e+02
5.090000000000211244e+00 1.319591023198189532e+02
5.110000000000210818e+00 1.303925800934989354e+02
5.130000000000210392e+00 1.296478809031407025e+02
5.150000000000209965e+00 1.286925777383782759e+02
5.170000000000209539e+00 1.276257346743143444e+02
5.190000000000209113e+00 1.265702915274374902e+02
5.210000000000208686e+00 1.258783231210922224e+02
5.230000000000208260e+00 1.251101582404259887e+02
5.250000000000207834e+00 1.242399126769533098e+02
5.270000000000207407e+00 1.233013392975986022e+02
5.290000000000206981e+00 1.220586744660474068e+02
5.310000000000206555e+00 1.214854896327168632e+02
5.330000000000206128e+00 1.207066339055986219e+02
5.350000000000205702e+00 1.199288740334184808e+02
5.370000000000205276e+00 1.190992410332487026e+02
5.390000000000204849e+00 1.177240778199807352e+02
5.410000000000204423e+00 1.177117095138318916e+02
5.430000000000203997e+00 1.165426286937530591e+02
5.450000000000203570e+00 1.155898001896124470e+02
5.470000000000203144e+00 1.143925105934830952e+02
5.490000000000202718e+00 1.139195228848015375e+02
5.510000000000202292e+00 1.136038689833333422e+02
5.530000000000201865e+00 1.129067659954350233e+02
5.550000000000201439e+00 1.118634873788474522e+02
5.570000000000201013e+00 1.111576051424612928e+02
5.590000000000200586e+00 1.104565652358869983e+02
5.610000000000200160e+00 1.100421038900384048e+02
5.630000000000199734e+00 1.099798320665576767e+02
5.650000000000199307e+00 1.094942894387609726e+02
5.670000000000198881e+00 1.093080106911183407e+02
5.690000000000198455e+00 1.078631137990920337e+02
5.710000000000198028e+00 1.075097889626118217e+02
5.730000000000197602e+00 1.070622153637991971e+02
5.750000000000197176e+00 1.067976220737960347e+02
5.770000000000196749e+00 1.065799631999005328e+02
5.790000000000196323e+00 1.058316783989815235e+02
5.810000000000195897e+00 1.055300357611407520e+02
5.830000000000195470e+00 1.054857629182868806e+02
5.850000000000195044e+00 1.053379491613289787e+02
5.870000000000194618e+00 1.051052411881866391e+02
5.890000000000194191e+00 1.046764217623824749e+02
5.910000000000193765e+00 1.043177853382616718e+02
5.930000000000193339e+00 1.041845198424245069e+02
5.950000000000192912e+00 1.037480432895322338e+02
5.970000000000192486e+00 1.036270966157936044e+02
5.990000000000192060e+00 1.035437353957096462e+02
6.010000000000191633e+00 1.029631925301150801e+02
6.030000000000191207e+00 1.026721384368787255e+02
6.050000000000190781e+00 1.028883479907771061e+02
6.070000000000190354e+00 1.019472676621452223e+02
6.090000000000189928e+00 1.021142544165581256e+02
6.110000000000189502e+00 1.016498895562238118e+02
6.130000000000189075e+00 1.012541455852507113e+02
6.150000000000188649e+00 1.010220774879127390e+02
6.170000000000188223e+00 1.006694681826778890e+02
6.190000000000187796e+00 1.009617516506809949e+02
6.210000000000187370e+00 1.005790993054215221e+02
6.230000000000186944e+00 1.005119026026245308e+02
6.250000000000186517e+00 9.976518385403039701e+01
6.270000000000186091e+00 9.981528437603297732e+01
6.290000000000185665e+00 9.951192576560967495e+01
6.310000000000185238e+00 9.938066411211347884e+01
6.330000000000184812e+00 9.952048501427186977e+01
6.350000000000184386e+00 9.928967440925585208e+01
6.370000000000183960e+00 9.923917634944393740e+01
6.390000000000183533e+00 9.898641460783697710e+01
6.410000000000183107e+00 9.945603457045039875e+01
6.430000000000182681e+00 9.922892929617742652e+01
6.450000000000182254e+00 9.915291987798541129e+01
6.470000000000181828e+00 9.928454364541461530e+01
6.490000000000181402e+00 9.921310473364566462e+01
6.510000000000180975e+00 9.921947338120781978e+01
6.530000000000180549e+00 9.926284686349406172e+01
6.550000000000180123e+00 9.931581454216888005e+01
6.570000000000179696e+00 9.921481107995882098e+01
6.590000000000179270e+00 9.855458133959483291e+01
6.610000000000178844e+00 9.891878250372337789e+01
6.630000000000178417e+00 9.920179033717202799e+01
6.650000000000177991e+00 9.838328139930510474e+01
6.670000000000177565e+00 9.836751617261957392e+01
6.690000000000177138e+00 9.861381282598460984e+01
6.710000000000176712e+00 9.882178780347965130e+01
6.730000000000176286e+00 9.836862855888685431e+01
6.750000000000175859e+00 9.808365931594273945e+01
6.770000000000175433e+00 9.806770312633061337e+01
6.790000000000175007e+00 9.810291225062104559e+01
6.810000000000174580e+00 9.776408814245489509e+01
6.830000000000174154e+00 9.809873264005977944e+01
6.850000000000173728e+00 9.852095634967777471e+01
6.870000000000173301e+00 9.834786762501289559e+01
6.890000000000172875e+00 9.800029706787475448e+01
6.910000000000172449e+00 9.820661775897227130e+01
6.930000000000172022e+00 9.820907127546279014e+01
6.950000000000171596e+00 9.826084760782748617e+01
6.970000000000171170e+00 9.872616519612711272e+01
6.990000000000170743e+00 9.874631593719972500e+01
7.010000000000170317e+00 9.891726172789007876e+01
7.030000000000169891e+00 9.876662022807518326e+01
7.050000000000169464e+00 9.880535739173959087e+01
7.070000000000169038e+00 9.887134803287648310e+01
7.090000000000168612e+00 9.889161412160426323e+01
7.110000000000168185e+00 9.863993081779626948e+01
7.130000000000167759e+00 9.890185398822171692e+01
7.150000000000167333e+00 9.940722957401344217e+01
7.170000000000166906e+00 9.888679864902032079e+01
7.190000000000166480e+00 9.881960409605011364e+01
7.210000000000166054e+00 9.852351072450386482e+01
7.230000000000165628e+00 9.895521586688607840e+01
7.250000000000165201e+00 9.885912058217594733e+01
7.270000000000164775e+00 9.846463508188355718e+01
7.290000000000164349e+00 9.937965109609578462e+01
7.310000000000163922e+00 9.894846401248467771e+01
7.330000000000163496e+00 9.897417486385162988e+01
7.350000000000163070e+00 9.923887019279122512e+01
7.370000000000162643e+00 9.924177625122833035e+01
7.390000000000162217e+00 9.931276340320980012e+01
7.410000000000161791e+00 9.952098455952153699e+01
7.430000000000161364e+00 9.958479813652581925e+01
7.450000000000160938e+00 9.987899896687720513e+01
7.470000000000160512e+00 1.001483109254331367e+02
7.490000000000160085e+00 1.002037067544576132e+02
7.510000000000159659e+00 1.001288339228471926e+02
7.530000000000159233e+00 1.003176561847487278e+02
7.550000000000158806e+00 1.005956728769646986e+02
7.570000000000158380e+00 1.005717393766330758e+02
7.590000000000157954e+00 1.006068165333139603e+02
7.610000000000157527e+00 1.010996771559170782e+02
7.630000000000157101e+00 1.007477735517885264e+02
7.650000000000156675e+00 1.004228145585172882e+02
7.670000000000156248e+00 1.010122482847743584e+02
7.690000000000155822e+00 1.008803752639203566e+02
7.710000000000155396e+00 1.014122821671848698e+02
7.730000000000154969e+00 1.014391915125740837e+02
7.750000000000154543e+00 1.009952065778975623e+02
7.770000000000154117e+00 1.013245041566860039e+02
7.790000000000153690e+00 1.016868922934195183e+02
7.810000000000153264e+00 1.019584732953745885e+02
7.830000000000152838e+00 1.022374921654589031e+02
7.850000000000152411e+00 1.020843756366645749e+02
7.870000000000151985e+00 1.024491602461698108e+02
7.890000000000151559e+00 1.024205935645123873e+02
7.910000000000151132e+00 1.026756880218461987e+02
7.930000000000150706e+00 1.028359300000700216e+02
7.950000000000150280e+00 1.032776355890395763e+02
7.970000000000149853e+00 1.034672795623454391e+02
