# Redshift		Merger Rate Density [Gpc^-3yr^-1]
1.000000000031931770e-02 1.147255345931676374e+02
3.000000000031888964e-02 1.201311657697953450e+02
5.000000000031846331e-02 1.262257481105776833e+02
7.000000000031804392e-02 1.323629366644569814e+02
9.000000000031761760e-02 1.386597616606663337e+02
1.100000000003171913e-01 1.454082095899499052e+02
1.300000000003167511e-01 1.520953606947243770e+02
1.500000000003163247e-01 1.589837827048640406e+02
1.700000000003158984e-01 1.657584826233026263e+02
1.900000000003154721e-01 1.727104762313569211e+02
2.100000000003150458e-01 1.800914527482749463e+02
2.300000000003146194e-01 1.875903972959390558e+02
2.500000000003141931e-01 1.948084191827846325e+02
2.700000000003137668e-01 2.032054900706098977e+02
2.900000000003133405e-01 2.110289163067062930e+02
3.100000000003129141e-01 2.192088598763111236e+02
3.300000000003124878e-01 2.268726499133103687e+02
3.500000000003120615e-01 2.359752451930802692e+02
3.700000000003116352e-01 2.441152098238894439e+02
3.900000000003112088e-01 2.524937529024718970e+02
4.100000000003107825e-01 2.620243232246542107e+02
4.300000000003103562e-01 2.704498923390851246e+02
4.500000000003099299e-01 2.792719688241960512e+02
4.700000000003095035e-01 2.884167201989421869e+02
4.900000000003090772e-01 2.978296705589141311e+02
5.100000000003086509e-01 3.080637089548732206e+02
5.300000000003082246e-01 3.171982771886496266e+02
5.500000000003077982e-01 3.278365031417414457e+02
5.700000000003073719e-01 3.372143382830300880e+02
5.900000000003069456e-01 3.472170188393164949e+02
6.100000000003065193e-01 3.581503845792095717e+02
6.300000000003060929e-01 3.677511142598141873e+02
6.500000000003056666e-01 3.791891510947178858e+02
6.700000000003052403e-01 3.897204287554731650e+02
6.900000000003048140e-01 3.995242533012172998e+02
7.100000000003043876e-01 4.103623823639932766e+02
7.300000000003039613e-01 4.223553718736559404e+02
7.500000000003035350e-01 4.330210118576426908e+02
7.700000000003031086e-01 4.435163021654668114e+02
7.900000000003026823e-01 4.556465885222176553e+02
8.100000000003022560e-01 4.666332853119997708e+02
8.300000000003018297e-01 4.777114777467091358e+02
8.500000000003014033e-01 4.907654340842332772e+02
8.700000000003009770e-01 5.008600930072111055e+02
8.900000000003005507e-01 5.131964926996904524e+02
9.100000000003001244e-01 5.256095840911294772e+02
9.300000000002996980e-01 5.369814222253224898e+02
9.500000000002992717e-01 5.473757527452280556e+02
9.700000000002988454e-01 5.611474127508816991e+02
9.900000000002984191e-01 5.719612540638850078e+02
1.010000000000297993e+00 5.833180970842772695e+02
1.030000000000297566e+00 5.947758952004292041e+02
1.050000000000297140e+00 6.069863801027318004e+02
1.070000000000296714e+00 6.189341732013763249e+02
1.090000000000296287e+00 6.305681618445742060e+02
1.110000000000295861e+00 6.411603151928069337e+02
1.130000000000295435e+00 6.532233932142924004e+02
1.150000000000295008e+00 6.638712380755556524e+02
1.170000000000294582e+00 6.754780752710914840e+02
1.190000000000294156e+00 6.878336403725659238e+02
1.210000000000293729e+00 6.965402605753118905e+02
1.230000000000293303e+00 7.073577001212694313e+02
1.250000000000292877e+00 7.192523058882711666e+02
1.270000000000292451e+00 7.290086274323929274e+02
1.290000000000292024e+00 7.392382035130764280e+02
1.310000000000291598e+00 7.503462477280066878e+02
1.330000000000291172e+00 7.597028984105957079e+02
1.350000000000290745e+00 7.677313221324374126e+02
1.370000000000290319e+00 7.774791363733908156e+02
1.390000000000289893e+00 7.864898616220170879e+02
1.410000000000289466e+00 7.947678051510974910e+02
1.430000000000289040e+00 8.039634615605573345e+02
1.450000000000288614e+00 8.116899269520056350e+02
1.470000000000288187e+00 8.200665299805945097e+02
1.490000000000287761e+00 8.288152866877195493e+02
1.510000000000287335e+00 8.364498887868644488e+02
1.530000000000286908e+00 8.424377641738565217e+02
1.550000000000286482e+00 8.511488059027631152e+02
1.570000000000286056e+00 8.597774173591246836e+02
1.590000000000285629e+00 8.652415114492481507e+02
1.610000000000285203e+00 8.727325707192485424e+02
1.630000000000284777e+00 8.803533818107023308e+02
1.650000000000284350e+00 8.881337332742127728e+02
1.670000000000283924e+00 8.885482540467033914e+02
1.690000000000283498e+00 9.044591438326411890e+02
1.710000000000283071e+00 9.073376670757595548e+02
1.730000000000282645e+00 9.173518194504050598e+02
1.750000000000282219e+00 9.114280253205453164e+02
1.770000000000281792e+00 9.022662341644073649e+02
1.790000000000281366e+00 9.005550673947622045e+02
1.810000000000280940e+00 8.980119126007097066e+02
1.830000000000280513e+00 8.961385928525169220e+02
1.850000000000280087e+00 8.954669723539637971e+02
1.870000000000279661e+00 8.947757215029226927e+02
1.890000000000279234e+00 8.956505011910767280e+02
1.910000000000278808e+00 8.917328136942644505e+02
1.930000000000278382e+00 8.924667649457809375e+02
1.950000000000277955e+00 9.001828790377118139e+02
1.970000000000277529e+00 8.976951176213166264e+02
1.990000000000277103e+00 8.958824527674838691e+02
2.010000000000276899e+00 8.925949411713645532e+02
2.030000000000276472e+00 8.843340311020569970e+02
2.050000000000276046e+00 8.829613184100131775e+02
2.070000000000275620e+00 8.751930860678681938e+02
2.090000000000275193e+00 8.725097965425167104e+02
2.110000000000274767e+00 8.678975104232536069e+02
2.130000000000274341e+00 8.665838435529645949e+02
2.150000000000273914e+00 8.617057408288561646e+02
2.170000000000273488e+00 8.524417881117966544e+02
2.190000000000273062e+00 8.455078739191042132e+02
2.210000000000272635e+00 8.380575308444119855e+02
2.230000000000272209e+00 8.269581496093906026e+02
2.250000000000271783e+00 8.160863568469228539e+02
2.270000000000271356e+00 8.010742546143441132e+02
2.290000000000270930e+00 7.919818244898439161e+02
2.310000000000270504e+00 7.857226543598375201e+02
2.330000000000270077e+00 7.764052279027192753e+02
2.350000000000269651e+00 7.687865646475456742e+02
2.370000000000269225e+00 7.588257474977252741e+02
2.390000000000268798e+00 7.516982985888101894e+02
2.410000000000268372e+00 7.430849185504852130e+02
2.430000000000267946e+00 7.323353708886886579e+02
2.450000000000267519e+00 7.214888353325978869e+02
2.470000000000267093e+00 7.113376537564649880e+02
2.490000000000266667e+00 7.034953328745871204e+02
2.510000000000266240e+00 6.944389650152950253e+02
2.530000000000265814e+00 6.840990102385519549e+02
2.550000000000265388e+00 6.759973438378091259e+02
2.570000000000264961e+00 6.666497869698291652e+02
2.590000000000264535e+00 6.589925869557919214e+02
2.610000000000264109e+00 6.488791443007090720e+02
2.630000000000263682e+00 6.416652432515693363e+02
2.650000000000263256e+00 6.325174874006623895e+02
2.670000000000262830e+00 6.232079635394572961e+02
2.690000000000262403e+00 6.145444400499301310e+02
2.710000000000261977e+00 6.064348637339541028e+02
2.730000000000261551e+00 5.978529073597788965e+02
2.750000000000261124e+00 5.900457943151166091e+02
2.770000000000260698e+00 5.809438427532500100e+02
2.790000000000260272e+00 5.717607349963478782e+02
2.810000000000259845e+00 5.630754941089995782e+02
2.830000000000259419e+00 5.563766517577247441e+02
2.850000000000258993e+00 5.482703765350756839e+02
2.870000000000258567e+00 5.400336880816868188e+02
2.890000000000258140e+00 5.324462859491153495e+02
2.910000000000257714e+00 5.246248523077493928e+02
2.930000000000257288e+00 5.175826423403600529e+02
2.950000000000256861e+00 5.102211625491389668e+02
2.970000000000256435e+00 5.025125461463804868e+02
2.990000000000256009e+00 4.937469731059356377e+02
3.010000000000255582e+00 4.863173231365279889e+02
3.030000000000255156e+00 4.802165551517280733e+02
3.050000000000254730e+00 4.714376616137429892e+02
3.070000000000254303e+00 4.660431221395388093e+02
3.090000000000253877e+00 4.595587046964046749e+02
3.110000000000253451e+00 4.524597290560587339e+02
3.130000000000253024e+00 4.487029939212945919e+02
3.150000000000252598e+00 4.392469137327487374e+02
3.170000000000252172e+00 4.365231780964400059e+02
3.190000000000251745e+00 4.288983220937437864e+02
3.210000000000251319e+00 4.237583198954695263e+02
3.230000000000250893e+00 4.178569789603312756e+02
3.250000000000250466e+00 4.124772829392079529e+02
3.270000000000250040e+00 4.075714890101471610e+02
3.290000000000249614e+00 4.009793188710755203e+02
3.310000000000249187e+00 3.916503547950136976e+02
3.330000000000248761e+00 3.837349462354577554e+02
3.350000000000248335e+00 3.746997377800674940e+02
3.370000000000247908e+00 3.692450946231346620e+02
3.390000000000247482e+00 3.624088110915334369e+02
3.410000000000247056e+00 3.570403450560859255e+02
3.430000000000246629e+00 3.504882436866274134e+02
3.450000000000246203e+00 3.457632845636356365e+02
3.470000000000245777e+00 3.406348431802254026e+02
3.490000000000245350e+00 3.360392221078214448e+02
3.510000000000244924e+00 3.309706727330906801e+02
3.530000000000244498e+00 3.258985210798734897e+02
3.550000000000244071e+00 3.225570643665807324e+02
3.570000000000243645e+00 3.197904882803283044e+02
3.590000000000243219e+00 3.166825093098717616e+02
3.610000000000242792e+00 3.129098741758184588e+02
3.630000000000242366e+00 3.088717722288462255e+02
3.650000000000241940e+00 3.029325317345075064e+02
3.670000000000241513e+00 2.970022534732331678e+02
3.690000000000241087e+00 2.914387014220319543e+02
3.710000000000240661e+00 2.866706985459968564e+02
3.730000000000240234e+00 2.821447636976049012e+02
3.750000000000239808e+00 2.782551305035711948e+02
3.770000000000239382e+00 2.738373535400901346e+02
3.790000000000238956e+00 2.711191167026806284e+02
3.810000000000238529e+00 2.671427216552916661e+02
3.830000000000238103e+00 2.637869859416918530e+02
3.850000000000237677e+00 2.621948492950191394e+02
3.870000000000237250e+00 2.563386926166247690e+02
3.890000000000236824e+00 2.530001018982641483e+02
3.910000000000236398e+00 2.480575520709783746e+02
3.930000000000235971e+00 2.451278976849341404e+02
3.950000000000235545e+00 2.416014173675241636e+02
3.970000000000235119e+00 2.386932856566808994e+02
3.990000000000234692e+00 2.345480111627412612e+02
4.010000000000234266e+00 2.306988428372910960e+02
4.030000000000233840e+00 2.267779838672958590e+02
4.050000000000233413e+00 2.240980655134528092e+02
4.070000000000232987e+00 2.212365222811602621e+02
4.090000000000232561e+00 2.174370128597016958e+02
4.110000000000232134e+00 2.155429807109220803e+02
4.130000000000231708e+00 2.123245622319670360e+02
4.150000000000231282e+00 2.102325096834577778e+02
4.170000000000230855e+00 2.073715775373230201e+02
4.190000000000230429e+00 2.044560771703363002e+02
4.210000000000230003e+00 2.021494500247158612e+02
4.230000000000229576e+00 1.996889872159064225e+02
4.250000000000229150e+00 1.953473501024691075e+02
4.270000000000228724e+00 1.916282661674958092e+02
4.290000000000228297e+00 1.888439728419778874e+02
4.310000000000227871e+00 1.847692829471308187e+02
4.330000000000227445e+00 1.819041003288567424e+02
4.350000000000227018e+00 1.777895996983010889e+02
4.370000000000226592e+00 1.761281927673033465e+02
4.390000000000226166e+00 1.737869627724697068e+02
4.410000000000225739e+00 1.706985261421419295e+02
4.430000000000225313e+00 1.681410700174175759e+02
4.450000000000224887e+00 1.657185292937868155e+02
4.470000000000224460e+00 1.639720735499484761e+02
4.490000000000224034e+00 1.615024076956998726e+02
4.510000000000223608e+00 1.599560009474130311e+02
4.530000000000223181e+00 1.576507471326948462e+02
4.550000000000222755e+00 1.547793765432924999e+02
4.570000000000222329e+00 1.515427913653177541e+02
4.590000000000221902e+00 1.500127492966813065e+02
4.610000000000221476e+00 1.479514045290930540e+02
4.630000000000221050e+00 1.466462678483558477e+02
4.650000000000220624e+00 1.435931961027889088e+02
4.670000000000220197e+00 1.417673705578862382e+02
4.690000000000219771e+00 1.383065266849062596e+02
4.710000000000219345e+00 1.354888868654685723e+02
4.730000000000218918e+00 1.331293515417968649e+02
4.750000000000218492e+00 1.302482570325478832e+02
4.770000000000218066e+00 1.288631905497445871e+02
4.790000000000217639e+00 1.259516048875870098e+02
4.810000000000217213e+00 1.238892245773975276e+02
4.830000000000216787e+00 1.216210588403411492e+02
4.850000000000216360e+00 1.200469802941901065e+02
4.870000000000215934e+00 1.177126751128557487e+02
4.890000000000215508e+00 1.154324259540184414e+02
4.910000000000215081e+00 1.142138920213172923e+02
4.930000000000214655e+00 1.118440570966906051e+02
4.950000000000214229e+00 1.095985669120851895e+02
4.970000000000213802e+00 1.074094095262123858e+02
4.990000000000213376e+00 1.052151500995550606e+02
5.010000000000212950e+00 1.021774281462383271e+02
5.030000000000212523e+00 9.979725177426065841e+01
5.050000000000212097e+00 9.798491743532167675e+01
5.070000000000211671e+00 9.543343434957364479e+01
5.090000000000211244e+00 9.339564055933585962e+01
5.110000000000210818e+00 9.115534708801884278e+01
5.130000000000210392e+00 8.866993765573688790e+01
5.150000000000209965e+00 8.601172957073107739e+01
5.170000000000209539e+00 8.411346747872765661e+01
5.190000000000209113e+00 8.191372218381459902e+01
5.210000000000208686e+00 7.993364371390053691e+01
5.230000000000208260e+00 7.830324585011358351e+01
5.250000000000207834e+00 7.637662599183740042e+01
5.270000000000207407e+00 7.453261599062351195e+01
5.290000000000206981e+00 7.330677888691003830e+01
5.310000000000206555e+00 7.116920925367017503e+01
5.330000000000206128e+00 6.957293737761267494e+01
5.350000000000205702e+00 6.735219815684557432e+01
5.370000000000205276e+00 6.582290017136318738e+01
5.390000000000204849e+00 6.484931881819322541e+01
5.410000000000204423e+00 6.254862786321386636e+01
5.430000000000203997e+00 6.167521259288251656e+01
5.450000000000203570e+00 5.970807619008287048e+01
5.470000000000203144e+00 5.851585392834255117e+01
5.490000000000202718e+00 5.656206283967974002e+01
5.510000000000202292e+00 5.452180037685628378e+01
5.530000000000201865e+00 5.318240639660582048e+01
5.550000000000201439e+00 5.144319231928022162e+01
5.570000000000201013e+00 5.000848211448578695e+01
5.590000000000200586e+00 4.852513293180343368e+01
5.610000000000200160e+00 4.748646732632829526e+01
5.630000000000199734e+00 4.577592766441959782e+01
5.650000000000199307e+00 4.404302858456369307e+01
5.670000000000198881e+00 4.242603931817541252e+01
5.690000000000198455e+00 4.185780559209739948e+01
5.710000000000198028e+00 4.019990153473595740e+01
5.730000000000197602e+00 3.893202586155180001e+01
5.750000000000197176e+00 3.800597692543861683e+01
5.770000000000196749e+00 3.676897038702633580e+01
5.790000000000196323e+00 3.585813156799238044e+01
5.810000000000195897e+00 3.456052099934430544e+01
5.830000000000195470e+00 3.388397914175170200e+01
5.850000000000195044e+00 3.290827940574714461e+01
5.870000000000194618e+00 3.192246308878588579e+01
5.890000000000194191e+00 3.113272605531980375e+01
5.910000000000193765e+00 3.051797534849360005e+01
5.930000000000193339e+00 2.961641909540008655e+01
5.950000000000192912e+00 2.888936791812366778e+01
5.970000000000192486e+00 2.819982852534421269e+01
5.990000000000192060e+00 2.726382735202129126e+01
6.010000000000191633e+00 2.624329022001285239e+01
6.030000000000191207e+00 2.543584504398333124e+01
6.050000000000190781e+00 2.499578271629747306e+01
6.070000000000190354e+00 2.431932213536484966e+01
6.090000000000189928e+00 2.382412872318949226e+01
6.110000000000189502e+00 2.324582623939410198e+01
6.130000000000189075e+00 2.228334259805691175e+01
6.150000000000188649e+00 2.205872630465612616e+01
6.170000000000188223e+00 2.082928213145172691e+01
6.190000000000187796e+00 2.057844793434292541e+01
6.210000000000187370e+00 1.979580848425693773e+01
6.230000000000186944e+00 1.935083844066123149e+01
6.250000000000186517e+00 1.881688287139609272e+01
6.270000000000186091e+00 1.843050273909696912e+01
6.290000000000185665e+00 1.814157015730767597e+01
6.310000000000185238e+00 1.758573359106323153e+01
6.330000000000184812e+00 1.710591283849746347e+01
6.350000000000184386e+00 1.670411777501626815e+01
6.370000000000183960e+00 1.651190874086724136e+01
6.390000000000183533e+00 1.628241192582126118e+01
6.410000000000183107e+00 1.583799213263410266e+01
6.430000000000182681e+00 1.540868990056839039e+01
6.450000000000182254e+00 1.540591670415395953e+01
6.470000000000181828e+00 1.512695083384594597e+01
6.490000000000181402e+00 1.482737386323060491e+01
6.510000000000180975e+00 1.462412301333557352e+01
6.530000000000180549e+00 1.398039436259636936e+01
6.550000000000180123e+00 1.388041145118715747e+01
6.570000000000179696e+00 1.356792312282987822e+01
6.590000000000179270e+00 1.310162538553499978e+01
6.610000000000178844e+00 1.288793954776232020e+01
6.630000000000178417e+00 1.300680314809033966e+01
6.650000000000177991e+00 1.254745055808627718e+01
6.670000000000177565e+00 1.251596176718345177e+01
6.690000000000177138e+00 1.227755005250319797e+01
6.710000000000176712e+00 1.210381463752778863e+01
6.730000000000176286e+00 1.172514486288291025e+01
6.750000000000175859e+00 1.151172536597342244e+01
6.770000000000175433e+00 1.101973041298675682e+01
6.790000000000175007e+00 1.101920283281421575e+01
6.810000000000174580e+00 1.059138611770843674e+01
6.830000000000174154e+00 1.037873834267085194e+01
6.850000000000173728e+00 1.028317697595530866e+01
6.870000000000173301e+00 1.018034332536509012e+01
6.890000000000172875e+00 1.008611800950598258e+01
6.910000000000172449e+00 9.817420687559442527e+00
6.930000000000172022e+00 9.693514910087989378e+00
6.950000000000171596e+00 9.546013334864678512e+00
6.970000000000171170e+00 9.420417866198496526e+00
6.990000000000170743e+00 9.260013755295357640e+00
7.010000000000170317e+00 9.273988653338632204e+00
7.030000000000169891e+00 8.995656838721306059e+00
7.050000000000169464e+00 8.784988022343435787e+00
7.070000000000169038e+00 8.764705788310482859e+00
7.090000000000168612e+00 8.488280136121904462e+00
7.110000000000168185e+00 8.435442014439963998e+00
7.130000000000167759e+00 8.205872763680281068e+00
7.150000000000167333e+00 8.156897669283129204e+00
7.170000000000166906e+00 8.048292726368183381e+00
7.190000000000166480e+00 7.926792729242006175e+00
7.210000000000166054e+00 7.883213302063301064e+00
7.230000000000165628e+00 7.924402842620614784e+00
7.250000000000165201e+00 7.617992664135970315e+00
7.270000000000164775e+00 7.544488324573376481e+00
7.290000000000164349e+00 7.301188166801201973e+00
7.310000000000163922e+00 7.298273511270662262e+00
7.330000000000163496e+00 7.264043757054076345e+00
7.350000000000163070e+00 6.982181119214312837e+00
7.370000000000162643e+00 6.918257367061105612e+00
7.390000000000162217e+00 6.882600321690179435e+00
7.410000000000161791e+00 6.862243109429511101e+00
7.430000000000161364e+00 6.708080306986119901e+00
7.450000000000160938e+00 6.593521259015610703e+00
7.470000000000160512e+00 6.559780471823405179e+00
7.490000000000160085e+00 6.578913102325416595e+00
7.510000000000159659e+00 6.338195880657914394e+00
7.530000000000159233e+00 6.331983305298210851e+00
7.550000000000158806e+00 6.106131542516904709e+00
7.570000000000158380e+00 6.101152465065774244e+00
7.590000000000157954e+00 6.097782431812500015e+00
7.610000000000157527e+00 5.982941145742142197e+00
7.630000000000157101e+00 5.944826905535218309e+00
7.650000000000156675e+00 5.794554387702220311e+00
7.670000000000156248e+00 5.897888860621618434e+00
7.690000000000155822e+00 5.625908370932720004e+00
7.710000000000155396e+00 5.707821738345854712e+00
7.730000000000154969e+00 5.501636666968177991e+00
7.750000000000154543e+00 5.552876398416078274e+00
7.770000000000154117e+00 5.397282144693105188e+00
7.790000000000153690e+00 5.401780278668428359e+00
7.810000000000153264e+00 5.320990450526136506e+00
7.830000000000152838e+00 5.151907484298350326e+00
7.850000000000152411e+00 5.117504134877441047e+00
7.870000000000151985e+00 5.036648753691547853e+00
7.890000000000151559e+00 5.049482732475032876e+00
7.910000000000151132e+00 4.983217903654617587e+00
7.930000000000150706e+00 4.895998236846863527e+00
7.950000000000150280e+00 4.847414714738941477e+00
7.970000000000149853e+00 4.796841508368094864e+00
