# Redshift		Merger Rate Density [Gpc^-3yr^-1]
1.000000000031931770e-02 2.232888660242274881e+01
3.000000000031888964e-02 2.344273626878725025e+01
5.000000000031846331e-02 2.457583283221966752e+01
7.000000000031804392e-02 2.566218824627796735e+01
9.000000000031761760e-02 2.679079215404546943e+01
1.100000000003171913e-01 2.813518929912307698e+01
1.300000000003167511e-01 2.918488125602821981e+01
1.500000000003163247e-01 3.053704314173460688e+01
1.700000000003158984e-01 3.175486188080886407e+01
1.900000000003154721e-01 3.301413927674057902e+01
2.100000000003150458e-01 3.435480943742680182e+01
2.300000000003146194e-01 3.579899118570658345e+01
2.500000000003141931e-01 3.681636158781598311e+01
2.700000000003137668e-01 3.853099793491708169e+01
2.900000000003133405e-01 3.996810032235659094e+01
3.100000000003129141e-01 4.119056842564042142e+01
3.300000000003124878e-01 4.270753646947825644e+01
3.500000000003120615e-01 4.413906585994298837e+01
3.700000000003116352e-01 4.553582499441015585e+01
3.900000000003112088e-01 4.699917458457412778e+01
4.100000000003107825e-01 4.871074636253263890e+01
4.300000000003103562e-01 5.001302782612994235e+01
4.500000000003099299e-01 5.152146630701668073e+01
4.700000000003095035e-01 5.334643839238238883e+01
4.900000000003090772e-01 5.484522532367143555e+01
5.100000000003086509e-01 5.659794372956955755e+01
5.300000000003082246e-01 5.832169155868989208e+01
5.500000000003077982e-01 5.997917042056287329e+01
5.700000000003073719e-01 6.128301325294314950e+01
5.900000000003069456e-01 6.346792130023933964e+01
6.100000000003065193e-01 6.545634936018788608e+01
6.300000000003060929e-01 6.662160472814998968e+01
6.500000000003056666e-01 6.873355328285221333e+01
6.700000000003052403e-01 7.071676087647260545e+01
6.900000000003048140e-01 7.189209758221301172e+01
7.100000000003043876e-01 7.384547801687615731e+01
7.300000000003039613e-01 7.552062670534364486e+01
7.500000000003035350e-01 7.750894286835463731e+01
7.700000000003031086e-01 7.928705855757495158e+01
7.900000000003026823e-01 8.136521280134593326e+01
8.100000000003022560e-01 8.285350613993330171e+01
8.300000000003018297e-01 8.470120281646559590e+01
8.500000000003014033e-01 8.681416756968498305e+01
8.700000000003009770e-01 8.856639967295741656e+01
8.900000000003005507e-01 9.019457606323418020e+01
9.100000000003001244e-01 9.220077749572978121e+01
9.300000000002996980e-01 9.398433694038803310e+01
9.500000000002992717e-01 9.525186768447927932e+01
9.700000000002988454e-01 9.803142223703686398e+01
9.900000000002984191e-01 9.908930809746496493e+01
1.010000000000297993e+00 1.006064808331112772e+02
1.030000000000297566e+00 1.028226944135244167e+02
1.050000000000297140e+00 1.041283599087101805e+02
1.070000000000296714e+00 1.061424064824040983e+02
1.090000000000296287e+00 1.077026522716919175e+02
1.110000000000295861e+00 1.091209743847003324e+02
1.130000000000295435e+00 1.107370326665188287e+02
1.150000000000295008e+00 1.122985161622026027e+02
1.170000000000294582e+00 1.138725114501006601e+02
1.190000000000294156e+00 1.159062138009266079e+02
1.210000000000293729e+00 1.171204062375041559e+02
1.230000000000293303e+00 1.180553631008867086e+02
1.250000000000292877e+00 1.202833077004047340e+02
1.270000000000292451e+00 1.212758341299536653e+02
1.290000000000292024e+00 1.227572201223377562e+02
1.310000000000291598e+00 1.245194887073256069e+02
1.330000000000291172e+00 1.250736375932827400e+02
1.350000000000290745e+00 1.256560140660465663e+02
1.370000000000290319e+00 1.271881391119642473e+02
1.390000000000289893e+00 1.286681913327687425e+02
1.410000000000289466e+00 1.293813753987032840e+02
1.430000000000289040e+00 1.300956678080435438e+02
1.450000000000288614e+00 1.311797461716573139e+02
1.470000000000288187e+00 1.329962770660994238e+02
1.490000000000287761e+00 1.330226179303414824e+02
1.510000000000287335e+00 1.334394746332378361e+02
1.530000000000286908e+00 1.344609245339569554e+02
1.550000000000286482e+00 1.343126293715786801e+02
1.570000000000286056e+00 1.350478208741546950e+02
1.590000000000285629e+00 1.364252491666091771e+02
1.610000000000285203e+00 1.361359950873666946e+02
1.630000000000284777e+00 1.364403677436434350e+02
1.650000000000284350e+00 1.370414699187234930e+02
1.670000000000283924e+00 1.371572872873198321e+02
1.690000000000283498e+00 1.375618076893173907e+02
1.710000000000283071e+00 1.369626996961495990e+02
1.730000000000282645e+00 1.373666084835370498e+02
1.750000000000282219e+00 1.367739400498062992e+02
1.770000000000281792e+00 1.370506037250354723e+02
1.790000000000281366e+00 1.368012605277340867e+02
1.810000000000280940e+00 1.375492992666489158e+02
1.830000000000280513e+00 1.360145708207853943e+02
1.850000000000280087e+00 1.358732744154714567e+02
1.870000000000279661e+00 1.354823416567097070e+02
1.890000000000279234e+00 1.345469942469343323e+02
1.910000000000278808e+00 1.339504414938902244e+02
1.930000000000278382e+00 1.329316995090772764e+02
1.950000000000277955e+00 1.329829773494849690e+02
1.970000000000277529e+00 1.310652094745879310e+02
1.990000000000277103e+00 1.308637284461852346e+02
2.010000000000276899e+00 1.298688019111571634e+02
2.030000000000276472e+00 1.287986549488430512e+02
2.050000000000276046e+00 1.277652967193520652e+02
2.070000000000275620e+00 1.263882666062245477e+02
2.090000000000275193e+00 1.258642809005022229e+02
2.110000000000274767e+00 1.248742983261388133e+02
2.130000000000274341e+00 1.234102126011017901e+02
2.150000000000273914e+00 1.224500504348388858e+02
2.170000000000273488e+00 1.213785519843707164e+02
2.190000000000273062e+00 1.194010912198783814e+02
2.210000000000272635e+00 1.188547886372853952e+02
2.230000000000272209e+00 1.167134392354524408e+02
2.250000000000271783e+00 1.153323240703431622e+02
2.270000000000271356e+00 1.144339724789605839e+02
2.290000000000270930e+00 1.134707814053228958e+02
2.310000000000270504e+00 1.131491286576295039e+02
2.330000000000270077e+00 1.125782440241527809e+02
2.350000000000269651e+00 1.112292409074953667e+02
2.370000000000269225e+00 1.108077657677643231e+02
2.390000000000268798e+00 1.128992815926779230e+02
2.410000000000268372e+00 1.097770559200109801e+02
2.430000000000267946e+00 1.070022627323284325e+02
2.450000000000267519e+00 1.032853434507320003e+02
2.470000000000267093e+00 1.019500181155163716e+02
2.490000000000266667e+00 1.003126001984860380e+02
2.510000000000266240e+00 9.925164238441968223e+01
2.530000000000265814e+00 9.506338508901635009e+01
2.550000000000265388e+00 9.207959464602915034e+01
2.570000000000264961e+00 9.035273030599793742e+01
2.590000000000264535e+00 8.838422444810883860e+01
2.610000000000264109e+00 8.634940127435540091e+01
2.630000000000263682e+00 8.528378003857292811e+01
2.650000000000263256e+00 8.365045322774358283e+01
2.670000000000262830e+00 8.192279764995369362e+01
2.690000000000262403e+00 8.059397582521252446e+01
2.710000000000261977e+00 7.872465840778598078e+01
2.730000000000261551e+00 7.753142268412399574e+01
2.750000000000261124e+00 7.612742305904583873e+01
2.770000000000260698e+00 7.470103974291198767e+01
2.790000000000260272e+00 7.329765713175748942e+01
2.810000000000259845e+00 7.198448444786352240e+01
2.830000000000259419e+00 7.065830844468592886e+01
2.850000000000258993e+00 6.959372200700691735e+01
2.870000000000258567e+00 6.818037167964769196e+01
2.890000000000258140e+00 6.712326447961387998e+01
2.910000000000257714e+00 6.562878101883853788e+01
2.930000000000257288e+00 6.404758388760780008e+01
2.950000000000256861e+00 6.264417499635987951e+01
2.970000000000256435e+00 6.140645049564476210e+01
2.990000000000256009e+00 6.011404420017767336e+01
3.010000000000255582e+00 5.919266065569895119e+01
3.030000000000255156e+00 5.811534190619569529e+01
3.050000000000254730e+00 5.676979819049604714e+01
3.070000000000254303e+00 5.548055311697264358e+01
3.090000000000253877e+00 5.441917864659578186e+01
3.110000000000253451e+00 5.326434015666821864e+01
3.130000000000253024e+00 5.249976349239821616e+01
3.150000000000252598e+00 5.123873154804383034e+01
3.170000000000252172e+00 5.033377197005643211e+01
3.190000000000251745e+00 4.905993659367733528e+01
3.210000000000251319e+00 4.800179104198540614e+01
3.230000000000250893e+00 4.704056618049188643e+01
3.250000000000250466e+00 4.623220718417731945e+01
3.270000000000250040e+00 4.536127986202337325e+01
3.290000000000249614e+00 4.422809384771035468e+01
3.310000000000249187e+00 4.334856426620592629e+01
3.330000000000248761e+00 4.257918457436563386e+01
3.350000000000248335e+00 4.152091751172086020e+01
3.370000000000247908e+00 4.084085656941632436e+01
3.390000000000247482e+00 3.998659097733496282e+01
3.410000000000247056e+00 3.916452865236413317e+01
3.430000000000246629e+00 3.842693952686647663e+01
3.450000000000246203e+00 3.755447279924555914e+01
3.470000000000245777e+00 3.687453674127089442e+01
3.490000000000245350e+00 3.604732294787478963e+01
3.510000000000244924e+00 3.520928977114962066e+01
3.530000000000244498e+00 3.458177241804186508e+01
3.550000000000244071e+00 3.374497754660808368e+01
3.570000000000243645e+00 3.295773700021528896e+01
3.590000000000243219e+00 3.264717467303619713e+01
3.610000000000242792e+00 3.189399067307116553e+01
3.630000000000242366e+00 3.129469140570443741e+01
3.650000000000241940e+00 3.051424954301923265e+01
3.670000000000241513e+00 2.962080051085670362e+01
3.690000000000241087e+00 2.940329369370856938e+01
3.710000000000240661e+00 2.868826161660475549e+01
3.730000000000240234e+00 2.809070582068020983e+01
3.750000000000239808e+00 2.729833484991020143e+01
3.770000000000239382e+00 2.687889415872028920e+01
3.790000000000238956e+00 2.633259163889857390e+01
3.810000000000238529e+00 2.590138081570532691e+01
3.830000000000238103e+00 2.556318738795568279e+01
3.850000000000237677e+00 2.486546856936023531e+01
3.870000000000237250e+00 2.426474369628488503e+01
3.890000000000236824e+00 2.395061559178491351e+01
3.910000000000236398e+00 2.336714416005242612e+01
3.930000000000235971e+00 2.290761706191158353e+01
3.950000000000235545e+00 2.255991793996666317e+01
3.970000000000235119e+00 2.199001608039921507e+01
3.990000000000234692e+00 2.157774152496168796e+01
4.010000000000234266e+00 2.126283902255203628e+01
4.030000000000233840e+00 2.078472783539093882e+01
4.050000000000233413e+00 2.049654396329695416e+01
4.070000000000232987e+00 1.997973728704070950e+01
4.090000000000232561e+00 1.941876910838842463e+01
4.110000000000232134e+00 1.935388932227614589e+01
4.130000000000231708e+00 1.905633420429997216e+01
4.150000000000231282e+00 1.852996930656373564e+01
4.170000000000230855e+00 1.824828563812196691e+01
4.190000000000230429e+00 1.819232696553228834e+01
4.210000000000230003e+00 1.773165289893093544e+01
4.230000000000229576e+00 1.745982371868927174e+01
4.250000000000229150e+00 1.696794499326936645e+01
4.270000000000228724e+00 1.668816967775607907e+01
4.290000000000228297e+00 1.664369133521592303e+01
4.310000000000227871e+00 1.625599729360489576e+01
4.330000000000227445e+00 1.603229374127851514e+01
4.350000000000227018e+00 1.558319894551093121e+01
4.370000000000226592e+00 1.552517523623970952e+01
4.390000000000226166e+00 1.502020644759330636e+01
4.410000000000225739e+00 1.480451836597070603e+01
4.430000000000225313e+00 1.440397407481795611e+01
4.450000000000224887e+00 1.411689735231177245e+01
4.470000000000224460e+00 1.412945995683193878e+01
4.490000000000224034e+00 1.373672847722172108e+01
4.510000000000223608e+00 1.337609418956172469e+01
4.530000000000223181e+00 1.335283053235436768e+01
4.550000000000222755e+00 1.302991981705507918e+01
4.570000000000222329e+00 1.285793492845436070e+01
4.590000000000221902e+00 1.242119412468537831e+01
4.610000000000221476e+00 1.226911468084263035e+01
4.630000000000221050e+00 1.215942075199458117e+01
4.650000000000220624e+00 1.181811655444577269e+01
4.670000000000220197e+00 1.170480642236967306e+01
4.690000000000219771e+00 1.158092162322926910e+01
4.710000000000219345e+00 1.132922088982319409e+01
4.730000000000218918e+00 1.124339693935539586e+01
4.750000000000218492e+00 1.099242848270373152e+01
4.770000000000218066e+00 1.093757704670426456e+01
4.790000000000217639e+00 1.068281914240129460e+01
4.810000000000217213e+00 1.052530559306035585e+01
4.830000000000216787e+00 1.042829192780281744e+01
4.850000000000216360e+00 1.026002446466098128e+01
4.870000000000215934e+00 1.013433211574778170e+01
4.890000000000215508e+00 1.001219791432039230e+01
4.910000000000215081e+00 9.736028973528197739e+00
4.930000000000214655e+00 9.896537571332487460e+00
4.950000000000214229e+00 9.573425306412428171e+00
4.970000000000213802e+00 9.512001695649567878e+00
4.990000000000213376e+00 9.487184044208502698e+00
5.010000000000212950e+00 9.217640999084538933e+00
5.030000000000212523e+00 9.103883610044668728e+00
5.050000000000212097e+00 9.012396571933210865e+00
5.070000000000211671e+00 8.860405360850919010e+00
5.090000000000211244e+00 8.869622473551498132e+00
5.110000000000210818e+00 8.764923625025673459e+00
5.130000000000210392e+00 8.604593102724971132e+00
5.150000000000209965e+00 8.412724162638889780e+00
5.170000000000209539e+00 8.341798617257939696e+00
5.190000000000209113e+00 8.283380023222211008e+00
5.210000000000208686e+00 8.155382957718542158e+00
5.230000000000208260e+00 8.039909770418478985e+00
5.250000000000207834e+00 8.134210777271265513e+00
5.270000000000207407e+00 7.838053680437412574e+00
5.290000000000206981e+00 7.679042132100863505e+00
5.310000000000206555e+00 7.636380828392266729e+00
5.330000000000206128e+00 7.731937821261603005e+00
5.350000000000205702e+00 7.560367672301232744e+00
5.370000000000205276e+00 7.538067002648251247e+00
5.390000000000204849e+00 7.417930608293589856e+00
5.410000000000204423e+00 7.329724391408521278e+00
5.430000000000203997e+00 7.286571288388627110e+00
5.450000000000203570e+00 7.112651112816728016e+00
5.470000000000203144e+00 7.055286829110782421e+00
5.490000000000202718e+00 7.148913745124896302e+00
5.510000000000202292e+00 6.894139432221420449e+00
5.530000000000201865e+00 6.982319815472890490e+00
5.550000000000201439e+00 6.929984524016790992e+00
5.570000000000201013e+00 6.823003612925626626e+00
5.590000000000200586e+00 6.770118501576481762e+00
5.610000000000200160e+00 6.759230831591800381e+00
5.630000000000199734e+00 6.632523654669839175e+00
5.650000000000199307e+00 6.579220291623768979e+00
5.670000000000198881e+00 6.465002533743628987e+00
5.690000000000198455e+00 6.425784467694562352e+00
5.710000000000198028e+00 6.361042508219738600e+00
5.730000000000197602e+00 6.321347627618887799e+00
5.750000000000197176e+00 6.374258768778488182e+00
5.770000000000196749e+00 6.295918538368193040e+00
5.790000000000196323e+00 6.215907859239337085e+00
5.810000000000195897e+00 6.110181140003553502e+00
5.830000000000195470e+00 6.099005319199146236e+00
5.850000000000195044e+00 6.118782947693639507e+00
5.870000000000194618e+00 6.005073334192422507e+00
5.890000000000194191e+00 5.991749167269787790e+00
5.910000000000193765e+00 5.939710929055217470e+00
5.930000000000193339e+00 5.902716458155835788e+00
5.950000000000192912e+00 5.822021741952542406e+00
5.970000000000192486e+00 5.867298091625096745e+00
5.990000000000192060e+00 5.800661812235206050e+00
6.010000000000191633e+00 5.714833002613135982e+00
6.030000000000191207e+00 5.715238273260512258e+00
6.050000000000190781e+00 5.697307135236388653e+00
6.070000000000190354e+00 5.662900692828352511e+00
6.090000000000189928e+00 5.676303962624706045e+00
6.110000000000189502e+00 5.639739823325302659e+00
6.130000000000189075e+00 5.488847874741003885e+00
6.150000000000188649e+00 5.568298099295862613e+00
6.170000000000188223e+00 5.490732807859957099e+00
6.190000000000187796e+00 5.468974325861028163e+00
6.210000000000187370e+00 5.450814401814763954e+00
6.230000000000186944e+00 5.492558649604883492e+00
6.250000000000186517e+00 5.399433754499449734e+00
6.270000000000186091e+00 5.394985030115663882e+00
6.290000000000185665e+00 5.405188019237813890e+00
6.310000000000185238e+00 5.326433132114041236e+00
6.330000000000184812e+00 5.432252268754414359e+00
6.350000000000184386e+00 5.297624818759939735e+00
6.370000000000183960e+00 5.270285288200411422e+00
6.390000000000183533e+00 5.246529463332164411e+00
6.410000000000183107e+00 5.226441251901936091e+00
6.430000000000182681e+00 5.197070762493021689e+00
6.450000000000182254e+00 5.187054974584079048e+00
6.470000000000181828e+00 5.275339432835629339e+00
6.490000000000181402e+00 5.179886069625864842e+00
6.510000000000180975e+00 5.187527236993425106e+00
6.530000000000180549e+00 5.093611107779201674e+00
6.550000000000180123e+00 5.114842347157679825e+00
6.570000000000179696e+00 5.140053605661193181e+00
6.590000000000179270e+00 5.054863202037814141e+00
6.610000000000178844e+00 5.065505150607525486e+00
6.630000000000178417e+00 5.164818989497257817e+00
6.650000000000177991e+00 5.033189192948509749e+00
6.670000000000177565e+00 4.957429489840817105e+00
6.690000000000177138e+00 5.078629154533332191e+00
6.710000000000176712e+00 5.023772506895660683e+00
6.730000000000176286e+00 5.034240073943011318e+00
6.750000000000175859e+00 4.985265280812056332e+00
6.770000000000175433e+00 4.957813542249406957e+00
6.790000000000175007e+00 4.980999735256565586e+00
6.810000000000174580e+00 4.977692379634991227e+00
6.830000000000174154e+00 4.972209922347066602e+00
6.850000000000173728e+00 5.052609992787221671e+00
6.870000000000173301e+00 4.928366785543684792e+00
6.890000000000172875e+00 4.991529785440063982e+00
6.910000000000172449e+00 4.965648818322615732e+00
6.930000000000172022e+00 4.933213589005920774e+00
6.950000000000171596e+00 4.982350389157314652e+00
6.970000000000171170e+00 4.963801038074350025e+00
6.990000000000170743e+00 4.896691684115529242e+00
7.010000000000170317e+00 4.926323559155229681e+00
7.030000000000169891e+00 4.835852319107203812e+00
7.050000000000169464e+00 4.918793928755224698e+00
7.070000000000169038e+00 4.923753588785589663e+00
7.090000000000168612e+00 4.894284073781735245e+00
7.110000000000168185e+00 4.909576299941282862e+00
7.130000000000167759e+00 4.868558370954394476e+00
7.150000000000167333e+00 4.920967570965802729e+00
7.170000000000166906e+00 4.953196302494602854e+00
7.190000000000166480e+00 4.861983804676004439e+00
7.210000000000166054e+00 4.875399265291978423e+00
7.230000000000165628e+00 4.919762017685090250e+00
7.250000000000165201e+00 4.913666477311263492e+00
7.270000000000164775e+00 4.875919846336938868e+00
7.290000000000164349e+00 4.867821186820704860e+00
7.310000000000163922e+00 4.918880626051389093e+00
7.330000000000163496e+00 4.889146154284244261e+00
7.350000000000163070e+00 4.904345741450266694e+00
7.370000000000162643e+00 5.009903634325183042e+00
7.390000000000162217e+00 4.873975277358629121e+00
7.410000000000161791e+00 4.942449998719948390e+00
7.430000000000161364e+00 4.964634001041771327e+00
7.450000000000160938e+00 4.907024081960278394e+00
7.470000000000160512e+00 4.954553858653065745e+00
7.490000000000160085e+00 4.945237471565123499e+00
7.510000000000159659e+00 4.917518449993162122e+00
7.530000000000159233e+00 4.925607634611441021e+00
7.550000000000158806e+00 4.949037758767012463e+00
7.570000000000158380e+00 4.957920307495919943e+00
7.590000000000157954e+00 4.974732197524851074e+00
7.610000000000157527e+00 4.907482727244022236e+00
7.630000000000157101e+00 4.927010419086571780e+00
7.650000000000156675e+00 4.960744957153605306e+00
7.670000000000156248e+00 4.973348434785287431e+00
7.690000000000155822e+00 4.965444879012805401e+00
7.710000000000155396e+00 4.960274086480604083e+00
7.730000000000154969e+00 5.026744112465877379e+00
7.750000000000154543e+00 5.009801442152991946e+00
7.770000000000154117e+00 5.008413062821764683e+00
7.790000000000153690e+00 5.017744172696692928e+00
7.810000000000153264e+00 5.019003518252515228e+00
7.830000000000152838e+00 5.063521562863107839e+00
7.850000000000152411e+00 5.001935621798524245e+00
7.870000000000151985e+00 5.068924260684982919e+00
7.890000000000151559e+00 5.098239462069669159e+00
7.910000000000151132e+00 5.015235308086407606e+00
7.930000000000150706e+00 5.093427198194536487e+00
7.950000000000150280e+00 5.052804117874068801e+00
7.970000000000149853e+00 5.100393611295793939e+00
