# Redshift		Merger Rate Density [Gpc^-3yr^-1]
1.000000000031931770e-02 2.536731435746631291e+00
3.000000000031888964e-02 2.643155141514814677e+00
5.000000000031846331e-02 2.782161001431270098e+00
7.000000000031804392e-02 2.938721922943583031e+00
9.000000000031761760e-02 3.077289728479298159e+00
1.100000000003171913e-01 3.190510596170025526e+00
1.300000000003167511e-01 3.358398361203741800e+00
1.500000000003163247e-01 3.505796586921502644e+00
1.700000000003158984e-01 3.581422823696915447e+00
1.900000000003154721e-01 3.745485134255002180e+00
2.100000000003150458e-01 3.920804381413252049e+00
2.300000000003146194e-01 4.004041198317206174e+00
2.500000000003141931e-01 4.189090923839474456e+00
2.700000000003137668e-01 4.411259099528891170e+00
2.900000000003133405e-01 4.487944779974469611e+00
3.100000000003129141e-01 4.600278537917318111e+00
3.300000000003124878e-01 4.786163545686196841e+00
3.500000000003120615e-01 4.911467763321731184e+00
3.700000000003116352e-01 5.083550753965448976e+00
3.900000000003112088e-01 5.316630843629872594e+00
4.100000000003107825e-01 5.389135271907863789e+00
4.300000000003103562e-01 5.599457318482275348e+00
4.500000000003099299e-01 5.752969223370718588e+00
4.700000000003095035e-01 5.904697616464864574e+00
4.900000000003090772e-01 6.171901757320010340e+00
5.100000000003086509e-01 6.221636291952428621e+00
5.300000000003082246e-01 6.513556738991523432e+00
5.500000000003077982e-01 6.632363909678821834e+00
5.700000000003073719e-01 6.785942308670462886e+00
5.900000000003069456e-01 6.956149958274218115e+00
6.100000000003065193e-01 7.194102017938672766e+00
6.300000000003060929e-01 7.379409945336770527e+00
6.500000000003056666e-01 7.591137266629645275e+00
6.700000000003052403e-01 7.819708770135546771e+00
6.900000000003048140e-01 7.895914512349709646e+00
7.100000000003043876e-01 8.158308789313512221e+00
7.300000000003039613e-01 8.418268695379415689e+00
7.500000000003035350e-01 8.650053694140966698e+00
7.700000000003031086e-01 8.829695613465124993e+00
7.900000000003026823e-01 9.030495484411066087e+00
8.100000000003022560e-01 9.307781068327541263e+00
8.300000000003018297e-01 9.470431041068323452e+00
8.500000000003014033e-01 9.641264106673739676e+00
8.700000000003009770e-01 9.991358315048552541e+00
8.900000000003005507e-01 1.006122514890754083e+01
9.100000000003001244e-01 1.042487495784471108e+01
9.300000000002996980e-01 1.063106092104726130e+01
9.500000000002992717e-01 1.073608434806069134e+01
9.700000000002988454e-01 1.097379528950580863e+01
9.900000000002984191e-01 1.133607342111452532e+01
1.010000000000297993e+00 1.137827496660593596e+01
1.030000000000297566e+00 1.169100202638689723e+01
1.050000000000297140e+00 1.207677887792605453e+01
1.070000000000296714e+00 1.230646012651744314e+01
1.090000000000296287e+00 1.229315927682026732e+01
1.110000000000295861e+00 1.276693269124605301e+01
1.130000000000295435e+00 1.276561075906474585e+01
1.150000000000295008e+00 1.319128361028813146e+01
1.170000000000294582e+00 1.330018766647183703e+01
1.190000000000294156e+00 1.357832437829039840e+01
1.210000000000293729e+00 1.397456829523522615e+01
1.230000000000293303e+00 1.384205319862630645e+01
1.250000000000292877e+00 1.452467158635515965e+01
1.270000000000292451e+00 1.439010108804276911e+01
1.290000000000292024e+00 1.466214942757119033e+01
1.310000000000291598e+00 1.490478169156080135e+01
1.330000000000291172e+00 1.517185681550922816e+01
1.350000000000290745e+00 1.523554574238421999e+01
1.370000000000290319e+00 1.559513394409188614e+01
1.390000000000289893e+00 1.575803835951360554e+01
1.410000000000289466e+00 1.622007343419656067e+01
1.430000000000289040e+00 1.607720210264351124e+01
1.450000000000288614e+00 1.619869424487511722e+01
1.470000000000288187e+00 1.676299990355165548e+01
1.490000000000287761e+00 1.650287131956744346e+01
1.510000000000287335e+00 1.672279598033374981e+01
1.530000000000286908e+00 1.691538388744026022e+01
1.550000000000286482e+00 1.730222413378787039e+01
1.570000000000286056e+00 1.715617522823690067e+01
1.590000000000285629e+00 1.747515577269039611e+01
1.610000000000285203e+00 1.748198966245841746e+01
1.630000000000284777e+00 1.764097573730970581e+01
1.650000000000284350e+00 1.772040731797483915e+01
1.670000000000283924e+00 1.801915995197279230e+01
1.690000000000283498e+00 1.801255503235816491e+01
1.710000000000283071e+00 1.814282686989387372e+01
1.730000000000282645e+00 1.818703646067439195e+01
1.750000000000282219e+00 1.843684486855604376e+01
1.770000000000281792e+00 1.823937533960118529e+01
1.790000000000281366e+00 1.830772414912447843e+01
1.810000000000280940e+00 1.841395948572552399e+01
1.830000000000280513e+00 1.853731736589409351e+01
1.850000000000280087e+00 1.850464286674094083e+01
1.870000000000279661e+00 1.875915340456684177e+01
1.890000000000279234e+00 1.902990772087123617e+01
1.910000000000278808e+00 1.843657577603769582e+01
1.930000000000278382e+00 1.868901593135645456e+01
1.950000000000277955e+00 1.857946617869798800e+01
1.970000000000277529e+00 1.907540840996671605e+01
1.990000000000277103e+00 1.861695665766261243e+01
2.010000000000276899e+00 1.851937790343387391e+01
2.030000000000276472e+00 1.915321301537461096e+01
2.050000000000276046e+00 1.883201516643443441e+01
2.070000000000275620e+00 1.845238703711473605e+01
2.090000000000275193e+00 1.816458058140183951e+01
2.110000000000274767e+00 1.845645497842930993e+01
2.130000000000274341e+00 1.808229325677358901e+01
2.150000000000273914e+00 1.807974018627503199e+01
2.170000000000273488e+00 1.835674410401472656e+01
2.190000000000273062e+00 1.774713090777504831e+01
2.210000000000272635e+00 1.786817357683591823e+01
2.230000000000272209e+00 1.767902134632235445e+01
2.250000000000271783e+00 1.758453357512441073e+01
2.270000000000271356e+00 1.748205598250049064e+01
2.290000000000270930e+00 1.776004040324405864e+01
2.310000000000270504e+00 1.749124460409312931e+01
2.330000000000270077e+00 1.744686222614991777e+01
2.350000000000269651e+00 1.725141878423792718e+01
2.370000000000269225e+00 1.693038611053940912e+01
2.390000000000268798e+00 1.667829770661409938e+01
2.410000000000268372e+00 1.670197193389529389e+01
2.430000000000267946e+00 1.641891692104840672e+01
2.450000000000267519e+00 1.647888407997780646e+01
2.470000000000267093e+00 1.612252707777373573e+01
2.490000000000266667e+00 1.618687416586237759e+01
2.510000000000266240e+00 1.617098557923380753e+01
2.530000000000265814e+00 1.603681695545001418e+01
2.550000000000265388e+00 1.555989970292027635e+01
2.570000000000264961e+00 1.517460604263812485e+01
2.590000000000264535e+00 1.545063167801949966e+01
2.610000000000264109e+00 1.504535357774029869e+01
2.630000000000263682e+00 1.506805811080382007e+01
2.650000000000263256e+00 1.487774498229867426e+01
2.670000000000262830e+00 1.465048048675432035e+01
2.690000000000262403e+00 1.435505363362616116e+01
2.710000000000261977e+00 1.427450182579212168e+01
2.730000000000261551e+00 1.441816620802703142e+01
2.750000000000261124e+00 1.384544552273948348e+01
2.770000000000260698e+00 1.388739073147071501e+01
2.790000000000260272e+00 1.362984474908773969e+01
2.810000000000259845e+00 1.350918029395371356e+01
2.830000000000259419e+00 1.339774791539270460e+01
2.850000000000258993e+00 1.328097913139965236e+01
2.870000000000258567e+00 1.317533354645873445e+01
2.890000000000258140e+00 1.283146563957725839e+01
2.910000000000257714e+00 1.278203621951644031e+01
2.930000000000257288e+00 1.250681779141378946e+01
2.950000000000256861e+00 1.228683400963566719e+01
2.970000000000256435e+00 1.231449588676819040e+01
2.990000000000256009e+00 1.206169977651758529e+01
3.010000000000255582e+00 1.214852834909651769e+01
3.030000000000255156e+00 1.184798356165111421e+01
3.050000000000254730e+00 1.155935295451756062e+01
3.070000000000254303e+00 1.144016558538391770e+01
3.090000000000253877e+00 1.134599320578353776e+01
3.110000000000253451e+00 1.128786804372139230e+01
3.130000000000253024e+00 1.098603718628969084e+01
3.150000000000252598e+00 1.107411148039592241e+01
3.170000000000252172e+00 1.063764024726955881e+01
3.190000000000251745e+00 1.065529283917167191e+01
3.210000000000251319e+00 1.042933027823116099e+01
3.230000000000250893e+00 1.036586184770428964e+01
3.250000000000250466e+00 1.031680347823568589e+01
3.270000000000250040e+00 1.027199027116173724e+01
3.290000000000249614e+00 9.987499756418333874e+00
3.310000000000249187e+00 9.912945041098785381e+00
3.330000000000248761e+00 9.937324396614846123e+00
3.350000000000248335e+00 9.575167783218315520e+00
3.370000000000247908e+00 9.445110098129186227e+00
3.390000000000247482e+00 9.244949831057020617e+00
3.410000000000247056e+00 9.194869646652657380e+00
3.430000000000246629e+00 9.128336569167235126e+00
3.450000000000246203e+00 8.923848744333112037e+00
3.470000000000245777e+00 8.756210205412358505e+00
3.490000000000245350e+00 9.007071748855569382e+00
3.510000000000244924e+00 8.577612831897740264e+00
3.530000000000244498e+00 8.571534165755444690e+00
3.550000000000244071e+00 8.264318528361535243e+00
3.570000000000243645e+00 8.323880700697245061e+00
3.590000000000243219e+00 8.204257327099927721e+00
3.610000000000242792e+00 8.108560067376416214e+00
3.630000000000242366e+00 8.016500926790191883e+00
3.650000000000241940e+00 7.936694588559967123e+00
3.670000000000241513e+00 7.845547081759377761e+00
3.690000000000241087e+00 7.821197472340757351e+00
3.710000000000240661e+00 7.623084493179302257e+00
3.730000000000240234e+00 7.550969047755295094e+00
3.750000000000239808e+00 7.558342564520619256e+00
3.770000000000239382e+00 7.280735495628553267e+00
3.790000000000238956e+00 7.211088199006246313e+00
3.810000000000238529e+00 7.169515324173703519e+00
3.830000000000238103e+00 7.080785705347194536e+00
3.850000000000237677e+00 6.801698112056310919e+00
3.870000000000237250e+00 6.802866170119941103e+00
3.890000000000236824e+00 6.734130962469303761e+00
3.910000000000236398e+00 6.616137266037616094e+00
3.930000000000235971e+00 6.607939641488526306e+00
3.950000000000235545e+00 6.560143410086743287e+00
3.970000000000235119e+00 6.482147231843231161e+00
3.990000000000234692e+00 6.301024497441308547e+00
4.010000000000234266e+00 6.190068874015333122e+00
4.030000000000233840e+00 6.063092690599215295e+00
4.050000000000233413e+00 6.098246135898288678e+00
4.070000000000232987e+00 6.029361426440275729e+00
4.090000000000232561e+00 5.925901021134828639e+00
4.110000000000232134e+00 5.937169467965623504e+00
4.130000000000231708e+00 5.857574227735264039e+00
4.150000000000231282e+00 5.719725246648825312e+00
4.170000000000230855e+00 5.718929824279026519e+00
4.190000000000230429e+00 5.645884572027632053e+00
4.210000000000230003e+00 5.529352033826734569e+00
4.230000000000229576e+00 5.524141693523525021e+00
4.250000000000229150e+00 5.455334133466206659e+00
4.270000000000228724e+00 5.234088540838655490e+00
4.290000000000228297e+00 5.280518223025220337e+00
4.310000000000227871e+00 5.209877528964899085e+00
4.330000000000227445e+00 5.160512352214308152e+00
4.350000000000227018e+00 5.051457692594355287e+00
4.370000000000226592e+00 5.045740218931110910e+00
4.390000000000226166e+00 4.925484756453809787e+00
4.410000000000225739e+00 4.923004302020233425e+00
4.430000000000225313e+00 4.908436568238601971e+00
4.450000000000224887e+00 4.719465102524035949e+00
4.470000000000224460e+00 4.774150704355937691e+00
4.490000000000224034e+00 4.692129810864599015e+00
4.510000000000223608e+00 4.627982385956300071e+00
4.530000000000223181e+00 4.570973376022564594e+00
4.550000000000222755e+00 4.437698818960936542e+00
4.570000000000222329e+00 4.466771266329527812e+00
4.590000000000221902e+00 4.425519153873222145e+00
4.610000000000221476e+00 4.412885200702685751e+00
4.630000000000221050e+00 4.384801881514711397e+00
4.650000000000220624e+00 4.301663650867188160e+00
4.670000000000220197e+00 4.219032681027202969e+00
4.690000000000219771e+00 4.152920644604617628e+00
4.710000000000219345e+00 4.122086244020649382e+00
4.730000000000218918e+00 4.095031038565566384e+00
4.750000000000218492e+00 3.976433108884747103e+00
4.770000000000218066e+00 3.942527209072686389e+00
4.790000000000217639e+00 3.970914668775938239e+00
4.810000000000217213e+00 3.920373989604730713e+00
4.830000000000216787e+00 3.884862490821152647e+00
4.850000000000216360e+00 3.910767844692556672e+00
4.870000000000215934e+00 3.774142154099318525e+00
4.890000000000215508e+00 3.794236325734186899e+00
4.910000000000215081e+00 3.676194952353696976e+00
4.930000000000214655e+00 3.688322954846666502e+00
4.950000000000214229e+00 3.575714831457290632e+00
4.970000000000213802e+00 3.649682415715515216e+00
4.990000000000213376e+00 3.542607036535767140e+00
5.010000000000212950e+00 3.562559261526586418e+00
5.030000000000212523e+00 3.402184113188030157e+00
5.050000000000212097e+00 3.426557608732572646e+00
5.070000000000211671e+00 3.440097824464287690e+00
5.090000000000211244e+00 3.365567117774582506e+00
5.110000000000210818e+00 3.280724104823207643e+00
5.130000000000210392e+00 3.235578226674892033e+00
5.150000000000209965e+00 3.241383300962275005e+00
5.170000000000209539e+00 3.232820112804299484e+00
5.190000000000209113e+00 3.141392588816545040e+00
5.210000000000208686e+00 3.098247234476689815e+00
5.230000000000208260e+00 3.176031079575904581e+00
5.250000000000207834e+00 3.081770009328299587e+00
5.270000000000207407e+00 3.086515698175933853e+00
5.290000000000206981e+00 3.023677589791982090e+00
5.310000000000206555e+00 3.008803864819518115e+00
5.330000000000206128e+00 3.006349171289881106e+00
5.350000000000205702e+00 2.930917615533815912e+00
5.370000000000205276e+00 2.898642155936273390e+00
5.390000000000204849e+00 2.925467756172590583e+00
5.410000000000204423e+00 2.887377894225335861e+00
5.430000000000203997e+00 2.835411918695712075e+00
5.450000000000203570e+00 2.813396174023091501e+00
5.470000000000203144e+00 2.804464840356157840e+00
5.490000000000202718e+00 2.743940784593052129e+00
5.510000000000202292e+00 2.731935893816385796e+00
5.530000000000201865e+00 2.689868588742571287e+00
5.550000000000201439e+00 2.703355518623816067e+00
5.570000000000201013e+00 2.634757791150169393e+00
5.590000000000200586e+00 2.586391838707130297e+00
5.610000000000200160e+00 2.591308616273247267e+00
5.630000000000199734e+00 2.567692592767969462e+00
5.650000000000199307e+00 2.583383221293985343e+00
5.670000000000198881e+00 2.566144173218837032e+00
5.690000000000198455e+00 2.527727836124836980e+00
5.710000000000198028e+00 2.434634349822850652e+00
5.730000000000197602e+00 2.434414663061624573e+00
5.750000000000197176e+00 2.468969388110175966e+00
5.770000000000196749e+00 2.392371428800451838e+00
5.790000000000196323e+00 2.442707493639711291e+00
5.810000000000195897e+00 2.290572247116575255e+00
5.830000000000195470e+00 2.284502709609302240e+00
5.850000000000195044e+00 2.291206139718046764e+00
5.870000000000194618e+00 2.255619905778840195e+00
5.890000000000194191e+00 2.220397758025649537e+00
5.910000000000193765e+00 2.180517044046796471e+00
5.930000000000193339e+00 2.234359763059205584e+00
5.950000000000192912e+00 2.204010434314060074e+00
5.970000000000192486e+00 2.178060121248453385e+00
5.990000000000192060e+00 2.227357727610313365e+00
6.010000000000191633e+00 2.117342893137615700e+00
6.030000000000191207e+00 2.113094618386819334e+00
6.050000000000190781e+00 2.078753983212801248e+00
6.070000000000190354e+00 2.082856733580902286e+00
6.090000000000189928e+00 2.045956511207140505e+00
6.110000000000189502e+00 2.082561703102623341e+00
6.130000000000189075e+00 2.037330081150454664e+00
6.150000000000188649e+00 2.079506966500405341e+00
6.170000000000188223e+00 2.000163380280726599e+00
6.190000000000187796e+00 1.985448514904122108e+00
6.210000000000187370e+00 2.032409866999516090e+00
6.230000000000186944e+00 1.959300162338555307e+00
6.250000000000186517e+00 2.004555351856478040e+00
6.270000000000186091e+00 1.903780811789041350e+00
6.290000000000185665e+00 1.886008789463357038e+00
6.310000000000185238e+00 1.851213190101529182e+00
6.330000000000184812e+00 1.853170313391073520e+00
6.350000000000184386e+00 1.864146873590785125e+00
6.370000000000183960e+00 1.798924232002780066e+00
6.390000000000183533e+00 1.808175022530801090e+00
6.410000000000183107e+00 1.780096240847655498e+00
6.430000000000182681e+00 1.761544608058909001e+00
6.450000000000182254e+00 1.737976709984772494e+00
6.470000000000181828e+00 1.773771715611474731e+00
6.490000000000181402e+00 1.734281434793130794e+00
6.510000000000180975e+00 1.715453637246797891e+00
6.530000000000180549e+00 1.709957921399630987e+00
6.550000000000180123e+00 1.704980289225573431e+00
6.570000000000179696e+00 1.649231844230858002e+00
6.590000000000179270e+00 1.637604170540809312e+00
6.610000000000178844e+00 1.609973514081419976e+00
6.630000000000178417e+00 1.655732785727063172e+00
6.650000000000177991e+00 1.633288510868021737e+00
6.670000000000177565e+00 1.617473752838043399e+00
6.690000000000177138e+00 1.585994803459410685e+00
6.710000000000176712e+00 1.584059804782797620e+00
6.730000000000176286e+00 1.563860458081853144e+00
6.750000000000175859e+00 1.507207817707255648e+00
6.770000000000175433e+00 1.528995663569394869e+00
6.790000000000175007e+00 1.474854841710945941e+00
6.810000000000174580e+00 1.479849455400997771e+00
6.830000000000174154e+00 1.483921944563691753e+00
6.850000000000173728e+00 1.515136972726774722e+00
6.870000000000173301e+00 1.466442508465221062e+00
6.890000000000172875e+00 1.458303265965896101e+00
6.910000000000172449e+00 1.492637606762751146e+00
6.930000000000172022e+00 1.454903259749717570e+00
6.950000000000171596e+00 1.394627778240104199e+00
6.970000000000171170e+00 1.419906054926350691e+00
6.990000000000170743e+00 1.386554316493485706e+00
7.010000000000170317e+00 1.449744067831011174e+00
7.030000000000169891e+00 1.370999425865824461e+00
7.050000000000169464e+00 1.351742997067516550e+00
7.070000000000169038e+00 1.385185518788599968e+00
7.090000000000168612e+00 1.317429658601529274e+00
7.110000000000168185e+00 1.362019145520297680e+00
7.130000000000167759e+00 1.322307923536748087e+00
7.150000000000167333e+00 1.257322927335040808e+00
7.170000000000166906e+00 1.267716940162307182e+00
7.190000000000166480e+00 1.279709850929980908e+00
7.210000000000166054e+00 1.233221876982536713e+00
7.230000000000165628e+00 1.257681536723610938e+00
7.250000000000165201e+00 1.261759362469989876e+00
7.270000000000164775e+00 1.236513644462554851e+00
7.290000000000164349e+00 1.230258408371289969e+00
7.310000000000163922e+00 1.245662909260333073e+00
7.330000000000163496e+00 1.186119868617803386e+00
7.350000000000163070e+00 1.179658132703908402e+00
7.370000000000162643e+00 1.201053390962929068e+00
7.390000000000162217e+00 1.189954324624486137e+00
7.410000000000161791e+00 1.154436429644723150e+00
7.430000000000161364e+00 1.178015888926551957e+00
7.450000000000160938e+00 1.141060781301591387e+00
7.470000000000160512e+00 1.102800530644300947e+00
7.490000000000160085e+00 1.116164248253389335e+00
7.510000000000159659e+00 1.106500770929196298e+00
7.530000000000159233e+00 1.115341532950980818e+00
7.550000000000158806e+00 1.096757115344937361e+00
7.570000000000158380e+00 1.072374175124377826e+00
7.590000000000157954e+00 1.084208990144116314e+00
7.610000000000157527e+00 1.062802657959713404e+00
7.630000000000157101e+00 1.073007477274512400e+00
7.650000000000156675e+00 1.040660513976587875e+00
7.670000000000156248e+00 1.040064211692997453e+00
7.690000000000155822e+00 1.047918740242977709e+00
7.710000000000155396e+00 1.041337441989617307e+00
7.730000000000154969e+00 1.004595529776938889e+00
7.750000000000154543e+00 1.030492770577517980e+00
7.770000000000154117e+00 1.005859308503389782e+00
7.790000000000153690e+00 9.871943728940338891e-01
7.810000000000153264e+00 9.695812619064206883e-01
7.830000000000152838e+00 9.465675026446392915e-01
7.850000000000152411e+00 9.444211496764841618e-01
7.870000000000151985e+00 9.528470777986930429e-01
7.890000000000151559e+00 9.333728086769361720e-01
7.910000000000151132e+00 9.566000541858149520e-01
7.930000000000150706e+00 9.402588768821420473e-01
7.950000000000150280e+00 8.902946134293184821e-01
7.970000000000149853e+00 8.969062061056430890e-01
