# Redshift		Merger Rate Density [Gpc^-3yr^-1]
1.000000000031931770e-02 1.797030244027342007e+02
3.000000000031888964e-02 1.895465963235517108e+02
5.000000000031846331e-02 1.966024209266894900e+02
7.000000000031804392e-02 2.070147643025622415e+02
9.000000000031761760e-02 2.141183039782683011e+02
1.100000000003171913e-01 2.228587603528203260e+02
1.300000000003167511e-01 2.337826416939249441e+02
1.500000000003163247e-01 2.428751535408826498e+02
1.700000000003158984e-01 2.503958197203953659e+02
1.900000000003154721e-01 2.613472569197588768e+02
2.100000000003150458e-01 2.716284429329959949e+02
2.300000000003146194e-01 2.810250594121320091e+02
2.500000000003141931e-01 2.928526858169338425e+02
2.700000000003137668e-01 3.027061884104065257e+02
2.900000000003133405e-01 3.133901655702109679e+02
3.100000000003129141e-01 3.253449544484517446e+02
3.300000000003124878e-01 3.351538269516091759e+02
3.500000000003120615e-01 3.467780956739905491e+02
3.700000000003116352e-01 3.588020495613777712e+02
3.900000000003112088e-01 3.698033313346915634e+02
4.100000000003107825e-01 3.816916772389516268e+02
4.300000000003103562e-01 3.926418992034497819e+02
4.500000000003099299e-01 4.055433298957606212e+02
4.700000000003095035e-01 4.202038912998532965e+02
4.900000000003090772e-01 4.271042635806869612e+02
5.100000000003086509e-01 4.435847270263549262e+02
5.300000000003082246e-01 4.548704945196859626e+02
5.500000000003077982e-01 4.688168262398551178e+02
5.700000000003073719e-01 4.810287815823672872e+02
5.900000000003069456e-01 4.908627743333186686e+02
6.100000000003065193e-01 5.064973683756512060e+02
6.300000000003060929e-01 5.152836955119564664e+02
6.500000000003056666e-01 5.313524594774827392e+02
6.700000000003052403e-01 5.424673767428650990e+02
6.900000000003048140e-01 5.559050128537168121e+02
7.100000000003043876e-01 5.695397147134139004e+02
7.300000000003039613e-01 5.814567552872729266e+02
7.500000000003035350e-01 5.937960662690135223e+02
7.700000000003031086e-01 6.058823174906229951e+02
7.900000000003026823e-01 6.176502924129251824e+02
8.100000000003022560e-01 6.295978701435833500e+02
8.300000000003018297e-01 6.405860420019938601e+02
8.500000000003014033e-01 6.573006961450171275e+02
8.700000000003009770e-01 6.639393618974613673e+02
8.900000000003005507e-01 6.813729389239733791e+02
9.100000000003001244e-01 6.878700983010980963e+02
9.300000000002996980e-01 6.991048255465627790e+02
9.500000000002992717e-01 7.131893097766745768e+02
9.700000000002988454e-01 7.215996700903486953e+02
9.900000000002984191e-01 7.333558490420725775e+02
1.010000000000297993e+00 7.399358105407428639e+02
1.030000000000297566e+00 7.521588255509624332e+02
1.050000000000297140e+00 7.606516471634611207e+02
1.070000000000296714e+00 7.728540590535931187e+02
1.090000000000296287e+00 7.814807698610808302e+02
1.110000000000295861e+00 7.912871887511264504e+02
1.130000000000295435e+00 7.929784947408695643e+02
1.150000000000295008e+00 8.038407812927626992e+02
1.170000000000294582e+00 8.112606778926203788e+02
1.190000000000294156e+00 8.193460399943469383e+02
1.210000000000293729e+00 8.268873512685684091e+02
1.230000000000293303e+00 8.324500671669827625e+02
1.250000000000292877e+00 8.377746364824748753e+02
1.270000000000292451e+00 8.478262798441318182e+02
1.290000000000292024e+00 8.446063136933501028e+02
1.310000000000291598e+00 8.521290283548145226e+02
1.330000000000291172e+00 8.621769115380714084e+02
1.350000000000290745e+00 8.602410151611888978e+02
1.370000000000290319e+00 8.698205555378982581e+02
1.390000000000289893e+00 8.671528805656546410e+02
1.410000000000289466e+00 8.728951811509432446e+02
1.430000000000289040e+00 8.739968769165639060e+02
1.450000000000288614e+00 8.769326661228043349e+02
1.470000000000288187e+00 8.807974307281018582e+02
1.490000000000287761e+00 8.802980605340836746e+02
1.510000000000287335e+00 8.839083643953140381e+02
1.530000000000286908e+00 8.805677940107432278e+02
1.550000000000286482e+00 8.853825688894035011e+02
1.570000000000286056e+00 8.806248976307989551e+02
1.590000000000285629e+00 8.808198273491451573e+02
1.610000000000285203e+00 8.837442851343895427e+02
1.630000000000284777e+00 8.756856761650022918e+02
1.650000000000284350e+00 8.837142499106697642e+02
1.670000000000283924e+00 8.735323162875997696e+02
1.690000000000283498e+00 8.734459293362713197e+02
1.710000000000283071e+00 8.784586728966497731e+02
1.730000000000282645e+00 8.698016790013579111e+02
1.750000000000282219e+00 8.685011637184799156e+02
1.770000000000281792e+00 8.610791711196704910e+02
1.790000000000281366e+00 8.597172807781518031e+02
1.810000000000280940e+00 8.555079054738487230e+02
1.830000000000280513e+00 8.481074422564360020e+02
1.850000000000280087e+00 8.491886675381192617e+02
1.870000000000279661e+00 8.413118021837356082e+02
1.890000000000279234e+00 8.356159435545137057e+02
1.910000000000278808e+00 8.260746866687090915e+02
1.930000000000278382e+00 8.228179928643493213e+02
1.950000000000277955e+00 8.205964258390263240e+02
1.970000000000277529e+00 8.075099619298541711e+02
1.990000000000277103e+00 8.051156691906288643e+02
2.010000000000276899e+00 7.973832023832110281e+02
2.030000000000276472e+00 7.904520358572489158e+02
2.050000000000276046e+00 7.849865970917938967e+02
2.070000000000275620e+00 7.739002853899874026e+02
2.090000000000275193e+00 7.659602444823715359e+02
2.110000000000274767e+00 7.606745362229663669e+02
2.130000000000274341e+00 7.547962935812064416e+02
2.150000000000273914e+00 7.422133172995094128e+02
2.170000000000273488e+00 7.362657996044766833e+02
2.190000000000273062e+00 7.273886575966026840e+02
2.210000000000272635e+00 7.204341701573082446e+02
2.230000000000272209e+00 7.099060382214676110e+02
2.250000000000271783e+00 7.031795921156029863e+02
2.270000000000271356e+00 6.930354349981844280e+02
2.290000000000270930e+00 6.867429525402717445e+02
2.310000000000270504e+00 6.769559919218161212e+02
2.330000000000270077e+00 6.669589678484044271e+02
2.350000000000269651e+00 6.603866699756681555e+02
2.370000000000269225e+00 6.515534644376759843e+02
2.390000000000268798e+00 6.426936193519941298e+02
2.410000000000268372e+00 6.320893161993518561e+02
2.430000000000267946e+00 6.256705345645161742e+02
2.450000000000267519e+00 6.161571776743198825e+02
2.470000000000267093e+00 6.045690967386386774e+02
2.490000000000266667e+00 5.964992350533253784e+02
2.510000000000266240e+00 5.906901855661279797e+02
2.530000000000265814e+00 5.798538812359262238e+02
2.550000000000265388e+00 5.731568775713351442e+02
2.570000000000264961e+00 5.639120600605054960e+02
2.590000000000264535e+00 5.544106451982543149e+02
2.610000000000264109e+00 5.446744009683562808e+02
2.630000000000263682e+00 5.401365859350660230e+02
2.650000000000263256e+00 5.292253280553447894e+02
2.670000000000262830e+00 5.210302918529516774e+02
2.690000000000262403e+00 5.141181686817707259e+02
2.710000000000261977e+00 5.031178661600241071e+02
2.730000000000261551e+00 4.969665159749278587e+02
2.750000000000261124e+00 4.883194981686926894e+02
2.770000000000260698e+00 4.804033919631893355e+02
2.790000000000260272e+00 4.735855455805320275e+02
2.810000000000259845e+00 4.648351984120125735e+02
2.830000000000259419e+00 4.588690520241932518e+02
2.850000000000258993e+00 4.513872098300230959e+02
2.870000000000258567e+00 4.426962211195556733e+02
2.890000000000258140e+00 4.364862287652774171e+02
2.910000000000257714e+00 4.287654024300674678e+02
2.930000000000257288e+00 4.226982691420769811e+02
2.950000000000256861e+00 4.138985739530999695e+02
2.970000000000256435e+00 4.066659589573385460e+02
2.990000000000256009e+00 3.982257519336232576e+02
3.010000000000255582e+00 3.942007678467322762e+02
3.030000000000255156e+00 3.898233833631871903e+02
3.050000000000254730e+00 3.819696609167675661e+02
3.070000000000254303e+00 3.744050947630709061e+02
3.090000000000253877e+00 3.682383348990631475e+02
3.110000000000253451e+00 3.609419681697932560e+02
3.130000000000253024e+00 3.542258057578324042e+02
3.150000000000252598e+00 3.498558945311850721e+02
3.170000000000252172e+00 3.434967712110449725e+02
3.190000000000251745e+00 3.374198076187215065e+02
3.210000000000251319e+00 3.318243182191299638e+02
3.230000000000250893e+00 3.276536680822988501e+02
3.250000000000250466e+00 3.200696661807533019e+02
3.270000000000250040e+00 3.146493335249294887e+02
3.290000000000249614e+00 3.097527848194671947e+02
3.310000000000249187e+00 3.035053735345174459e+02
3.330000000000248761e+00 3.009414995996497169e+02
3.350000000000248335e+00 2.938393406512456068e+02
3.370000000000247908e+00 2.908180578928576097e+02
3.390000000000247482e+00 2.831032888019192910e+02
3.410000000000247056e+00 2.790286129320178361e+02
3.430000000000246629e+00 2.742197491925850272e+02
3.450000000000246203e+00 2.707478395979687207e+02
3.470000000000245777e+00 2.653582553836001807e+02
3.490000000000245350e+00 2.598267498222631389e+02
3.510000000000244924e+00 2.555686857369454970e+02
3.530000000000244498e+00 2.529000890070689707e+02
3.550000000000244071e+00 2.484508176341955732e+02
3.570000000000243645e+00 2.427406947082357931e+02
3.590000000000243219e+00 2.394164501654401818e+02
3.610000000000242792e+00 2.360385233341598621e+02
3.630000000000242366e+00 2.314713454458001536e+02
3.650000000000241940e+00 2.275480415511434842e+02
3.670000000000241513e+00 2.238334822662968691e+02
3.690000000000241087e+00 2.210385939352898674e+02
3.710000000000240661e+00 2.172336212107739470e+02
3.730000000000240234e+00 2.132064751878131972e+02
3.750000000000239808e+00 2.103502500794114383e+02
3.770000000000239382e+00 2.067058712378994869e+02
3.790000000000238956e+00 2.022929379517226494e+02
3.810000000000238529e+00 2.000478485446472234e+02
3.830000000000238103e+00 1.971517927150487139e+02
3.850000000000237677e+00 1.934445270601935363e+02
3.870000000000237250e+00 1.907938419262179934e+02
3.890000000000236824e+00 1.877565500199700637e+02
3.910000000000236398e+00 1.856972069182527036e+02
3.930000000000235971e+00 1.814008666198024571e+02
3.950000000000235545e+00 1.794136015486616031e+02
3.970000000000235119e+00 1.764035443238911967e+02
3.990000000000234692e+00 1.748900405077820608e+02
4.010000000000234266e+00 1.701363607697084319e+02
4.030000000000233840e+00 1.688733050555999853e+02
4.050000000000233413e+00 1.671327172560920360e+02
4.070000000000232987e+00 1.632137846329799800e+02
4.090000000000232561e+00 1.619599358906625923e+02
4.110000000000232134e+00 1.587134155797766937e+02
4.130000000000231708e+00 1.574929231041507194e+02
4.150000000000231282e+00 1.549227419311752385e+02
4.170000000000230855e+00 1.524728481726284315e+02
4.190000000000230429e+00 1.506369569366275130e+02
4.210000000000230003e+00 1.475322319380055376e+02
4.230000000000229576e+00 1.463702048423506881e+02
4.250000000000229150e+00 1.433727111350634402e+02
4.270000000000228724e+00 1.422835395706852353e+02
4.290000000000228297e+00 1.395554788297382061e+02
4.310000000000227871e+00 1.381536590695777420e+02
4.330000000000227445e+00 1.357213839466720628e+02
4.350000000000227018e+00 1.339896884186885302e+02
4.370000000000226592e+00 1.328477929098207255e+02
4.390000000000226166e+00 1.308167444089317542e+02
4.410000000000225739e+00 1.292830353233632934e+02
4.430000000000225313e+00 1.276647242141297198e+02
4.450000000000224887e+00 1.258424301902427942e+02
4.470000000000224460e+00 1.237985662559236886e+02
4.490000000000224034e+00 1.226229938432850588e+02
4.510000000000223608e+00 1.210069016753010516e+02
4.530000000000223181e+00 1.188557587957921982e+02
4.550000000000222755e+00 1.177108322091260248e+02
4.570000000000222329e+00 1.162357109357373304e+02
4.590000000000221902e+00 1.155925530940353951e+02
4.610000000000221476e+00 1.134770649066438324e+02
4.630000000000221050e+00 1.127010897314797404e+02
4.650000000000220624e+00 1.105972368615328776e+02
4.670000000000220197e+00 1.093251049705661870e+02
4.690000000000219771e+00 1.086864578392308829e+02
4.710000000000219345e+00 1.063870681930291511e+02
4.730000000000218918e+00 1.053628237445738449e+02
4.750000000000218492e+00 1.044851101549572974e+02
4.770000000000218066e+00 1.029484570825825642e+02
4.790000000000217639e+00 1.019823123478852125e+02
4.810000000000217213e+00 1.008249409391975604e+02
4.830000000000216787e+00 9.969841805313534167e+01
4.850000000000216360e+00 9.872618472069508755e+01
4.870000000000215934e+00 9.773635273113058020e+01
4.890000000000215508e+00 9.613541054463046009e+01
4.910000000000215081e+00 9.539630376156435432e+01
4.930000000000214655e+00 9.414842709882049121e+01
4.950000000000214229e+00 9.286247976476941801e+01
4.970000000000213802e+00 9.241378716506838487e+01
4.990000000000213376e+00 9.164661343377856895e+01
5.010000000000212950e+00 9.005446621483112324e+01
5.030000000000212523e+00 8.950513157820107324e+01
5.050000000000212097e+00 8.894286274906406220e+01
5.070000000000211671e+00 8.694834745974411305e+01
5.090000000000211244e+00 8.684731445498786684e+01
5.110000000000210818e+00 8.569583164441661438e+01
5.130000000000210392e+00 8.465793508500837561e+01
5.150000000000209965e+00 8.379744901856412298e+01
5.170000000000209539e+00 8.342907091821739130e+01
5.190000000000209113e+00 8.218694022508081787e+01
5.210000000000208686e+00 8.125949295175988141e+01
5.230000000000208260e+00 8.102563009249895742e+01
5.250000000000207834e+00 7.947627826987668698e+01
5.270000000000207407e+00 7.913230085569298922e+01
5.290000000000206981e+00 7.792285032030589775e+01
5.310000000000206555e+00 7.729998767239675317e+01
5.330000000000206128e+00 7.738841147241465990e+01
5.350000000000205702e+00 7.648514083673774167e+01
5.370000000000205276e+00 7.490341136278213696e+01
5.390000000000204849e+00 7.485583163872396995e+01
5.410000000000204423e+00 7.400815673335596045e+01
5.430000000000203997e+00 7.372897089345754296e+01
5.450000000000203570e+00 7.290551912640076182e+01
5.470000000000203144e+00 7.238842832430550800e+01
5.490000000000202718e+00 7.135023074838545654e+01
5.510000000000202292e+00 7.086465782051466533e+01
5.530000000000201865e+00 7.053714746738639008e+01
5.550000000000201439e+00 6.967063671442517148e+01
5.570000000000201013e+00 6.840302989450631799e+01
5.590000000000200586e+00 6.830789262358432268e+01
5.610000000000200160e+00 6.800992517551837580e+01
5.630000000000199734e+00 6.690379777857951638e+01
5.650000000000199307e+00 6.625442828483312496e+01
5.670000000000198881e+00 6.627804674698255383e+01
5.690000000000198455e+00 6.510832343803484434e+01
5.710000000000198028e+00 6.471417725837648049e+01
5.730000000000197602e+00 6.394940304152460442e+01
5.750000000000197176e+00 6.360136473738136687e+01
5.770000000000196749e+00 6.313884341666448563e+01
5.790000000000196323e+00 6.229476757846173740e+01
5.810000000000195897e+00 6.169424103395459724e+01
5.830000000000195470e+00 6.137676273081638101e+01
5.850000000000195044e+00 6.083850177254321068e+01
5.870000000000194618e+00 6.069961450398158576e+01
5.890000000000194191e+00 5.973252043807852374e+01
5.910000000000193765e+00 5.955328578742819445e+01
5.930000000000193339e+00 5.935821140159977460e+01
5.950000000000192912e+00 5.865903351178017289e+01
5.970000000000192486e+00 5.841166957847905650e+01
5.990000000000192060e+00 5.799406308273142230e+01
6.010000000000191633e+00 5.761969131641818365e+01
6.030000000000191207e+00 5.710029550484486549e+01
6.050000000000190781e+00 5.663830765327526251e+01
6.070000000000190354e+00 5.647794346316594982e+01
6.090000000000189928e+00 5.574597707429958859e+01
6.110000000000189502e+00 5.532078998042450024e+01
6.130000000000189075e+00 5.529784627022483079e+01
6.150000000000188649e+00 5.478891838058655139e+01
6.170000000000188223e+00 5.417627133836009534e+01
6.190000000000187796e+00 5.381620411402531801e+01
6.210000000000187370e+00 5.342337516097660455e+01
6.230000000000186944e+00 5.303199343401057320e+01
6.250000000000186517e+00 5.288099684214309804e+01
6.270000000000186091e+00 5.213703773917083595e+01
6.290000000000185665e+00 5.165373659483422841e+01
6.310000000000185238e+00 5.145429983385197659e+01
6.330000000000184812e+00 5.101230163067669565e+01
6.350000000000184386e+00 5.107824791137812070e+01
6.370000000000183960e+00 5.060268599264827571e+01
6.390000000000183533e+00 5.023770894516736263e+01
6.410000000000183107e+00 4.986220321700122327e+01
6.430000000000182681e+00 4.962795419915884310e+01
6.450000000000182254e+00 4.972613306944171541e+01
6.470000000000181828e+00 4.891570720877159317e+01
6.490000000000181402e+00 4.879519625974282349e+01
6.510000000000180975e+00 4.858243883520337647e+01
6.530000000000180549e+00 4.894479696550150294e+01
6.550000000000180123e+00 4.817145266672844173e+01
6.570000000000179696e+00 4.805985915339178405e+01
6.590000000000179270e+00 4.765145440393136056e+01
6.610000000000178844e+00 4.743274686161276321e+01
6.630000000000178417e+00 4.740276322486537453e+01
6.650000000000177991e+00 4.737276272869118543e+01
6.670000000000177565e+00 4.676643881377199818e+01
6.690000000000177138e+00 4.694022206301425371e+01
6.710000000000176712e+00 4.684834011562391254e+01
6.730000000000176286e+00 4.665033501958404116e+01
6.750000000000175859e+00 4.640579865266672499e+01
6.770000000000175433e+00 4.596983410499146316e+01
6.790000000000175007e+00 4.575467771785572779e+01
6.810000000000174580e+00 4.594495272618833326e+01
6.830000000000174154e+00 4.536196935858273349e+01
6.850000000000173728e+00 4.566167762800354524e+01
6.870000000000173301e+00 4.535150561391144919e+01
6.890000000000172875e+00 4.535253104551210157e+01
6.910000000000172449e+00 4.517433264570244944e+01
6.930000000000172022e+00 4.508889724609483096e+01
6.950000000000171596e+00 4.480700063152641377e+01
6.970000000000171170e+00 4.472638349343937136e+01
6.990000000000170743e+00 4.479743939059319757e+01
7.010000000000170317e+00 4.466263387940308860e+01
7.030000000000169891e+00 4.442736146102710393e+01
7.050000000000169464e+00 4.423535358981883547e+01
7.070000000000169038e+00 4.423049992851078827e+01
7.090000000000168612e+00 4.438636309031353022e+01
7.110000000000168185e+00 4.424733057049728302e+01
7.130000000000167759e+00 4.432500398484049953e+01
7.150000000000167333e+00 4.424563962979421206e+01
7.170000000000166906e+00 4.437492493676938921e+01
7.190000000000166480e+00 4.425344041137817896e+01
7.210000000000166054e+00 4.452088493669877778e+01
7.230000000000165628e+00 4.435634669066315894e+01
7.250000000000165201e+00 4.430633076274683191e+01
7.270000000000164775e+00 4.429077817302137277e+01
7.290000000000164349e+00 4.436277713746040519e+01
7.310000000000163922e+00 4.432332092041303184e+01
7.330000000000163496e+00 4.430534438561515032e+01
7.350000000000163070e+00 4.432319157967938139e+01
7.370000000000162643e+00 4.435967395809355907e+01
7.390000000000162217e+00 4.440726884349945891e+01
7.410000000000161791e+00 4.426334153218974166e+01
7.430000000000161364e+00 4.426507003258282680e+01
7.450000000000160938e+00 4.448055571915453754e+01
7.470000000000160512e+00 4.455049022245685819e+01
7.490000000000160085e+00 4.442985783826629387e+01
7.510000000000159659e+00 4.448990377559775311e+01
7.530000000000159233e+00 4.485628366858601623e+01
7.550000000000158806e+00 4.467332479975606674e+01
7.570000000000158380e+00 4.485807335165327459e+01
7.590000000000157954e+00 4.486043989585188996e+01
7.610000000000157527e+00 4.502683412608622859e+01
7.630000000000157101e+00 4.520390782536623675e+01
7.650000000000156675e+00 4.526394784139753824e+01
7.670000000000156248e+00 4.535734065764917489e+01
7.690000000000155822e+00 4.572158905803964046e+01
7.710000000000155396e+00 4.553539483002391108e+01
7.730000000000154969e+00 4.575646136864287428e+01
7.750000000000154543e+00 4.572672024217828834e+01
7.770000000000154117e+00 4.599579146034221111e+01
7.790000000000153690e+00 4.567747362602230510e+01
7.810000000000153264e+00 4.610610651203544563e+01
7.830000000000152838e+00 4.650826353754139575e+01
7.850000000000152411e+00 4.642762580031197928e+01
7.870000000000151985e+00 4.644400876670804479e+01
7.890000000000151559e+00 4.646730148012785833e+01
7.910000000000151132e+00 4.670272825738857847e+01
7.930000000000150706e+00 4.671412311857450561e+01
7.950000000000150280e+00 4.704829664571272474e+01
7.970000000000149853e+00 4.696663430269047979e+01
